ECG
0.024760017138521426
-0.16688724273387445
0.04912665102270037
-0.03959675190952787
0.2571476869533767
-0.06772772821571904
0.08458783186992588
0.06947768807500257
0.13863314698611798
0.29256971613093946
0.32550342033371993
-0.040139592702249996
0.12122183028417331
0.15503214774758084
0.28841728437120046
0.21489490331865066
0.2630308234662639
0.2883784486532615
0.04838234739547634
0.10120373008777249
0.0760058204003548
0.3686244499416027
0.16274410768496816
0.23926283464717255
0.25109864759170447
0.3304410108724109
0.3106155114823542
0.4378016201488335
0.33564514323208344
0.29898653392220487
0.28199237771086966
0.2731309330167588
0.42246974964826584
0.42623092812858643
0.17412804307556673
0.25094188383615584
0.3582075590066598
0.5066496229000528
0.42594127836554535
0.3423882071111566
0.3477712604831732
0.4562209214611954
0.48192508767471653
0.378679255590386
0.5221700283863021
0.4950557876042784
0.316037062748328
0.625624305190683
0.5145868005200992
0.28543366597966513
0.49095764922393026
0.27760708085003377
0.554301905977573
0.5578861434158344
0.5108430302334875
0.43571139516193264
0.8231801792469091
0.7004655590484863
0.6254260797170411
0.6201984291532929
0.5615331715158969
0.6869248480765908
0.5128532297393567
0.6333506174435541
0.6332867362256737
0.47927906373634566
0.7262757378373532
0.4037016943872619
0.5062546593112014
0.5907830148714732
0.44100476731556026
0.4694235591576279
0.5270407215116396
0.5649764842253842
0.7028065416191389
0.7642786083900857
0.5923555120409929
0.758318386925799
0.824329399898339
0.5710153136116022
0.6789919468235419
0.6578407089190634
0.7671200573066295
0.7006703601850032
0.6750453756726363
0.8163566572831534
0.7359900308476928
0.8430601007463796
0.512542542189963
0.752729598826738
0.8530493773869904
0.7267057055688507
0.8454358948080701
0.9574016316594176
0.8516400610396015
0.9208741511758219
0.8116902678100616
0.814418680231489
0.9002708484531676
0.8453873983243225
0.9064810999107521
0.8902362639256055
0.8737105688907074
0.9377441653868184
0.829191454145049
0.9050381429353146
0.7599478177279889
0.9841608166845807
1.061256888818948
0.9565274785316636
0.8795053818055508
0.9699897009088335
0.9215444553296173
0.729511818001755
0.7853111784164518
0.8117512134551712
0.9655590811139113
0.8116583922851531
0.8918659842997019
1.0735493676315213
0.9675444596439562
0.9401092146801155
0.954193017872786
0.9254935527399087
0.9239728305533416
0.9486159734242884
1.00608531391934
0.9428983651036266
0.874818483017459
1.047880577764226
0.883552550990053
0.8853876692011025
0.9932087745387956
0.9315121917545399
1.1324660450102435
0.9150117192433381
0.8317338634636253
0.9792517952097551
0.9853775542004732
1.1386583552393408
1.0591175451807289
0.8201067688360792
0.9615987467868387
0.9672375519574472
1.1520314083753078
0.9931784664754858
1.1645140244851278
0.9769049845647285
1.0437409402465978
1.0499788886628876
0.9838766664072915
0.9498164733186877
1.008874798987333
0.9927895538069692
0.8821106461703023
1.02084342489863
1.0498974617854262
1.0920159925479143
0.9388231203868947
1.0233917590736765
0.9389030105674164
1.1932699660367465
0.920224400810893
0.9294212920826623
1.0240530382736075
1.0270940598571057
1.0625624744231992
0.9923186542270879
1.158536544492677
0.9463964292161644
1.0179897490169854
1.1202950776007716
0.7904676529745139
0.9944985770444755
1.072012861812839
0.9511672550948505
0.7849413387767133
0.8487875335999706
1.1573327964985645
0.8566590460024467
1.1199000227455198
1.05066438790727
0.9852351262129592
1.0265782786329607
1.0753614951767694
0.9398747118890987
1.1377793376941452
0.9716500416277588
1.1324873304348224
1.0512830199065022
1.1123949608154327
1.0093483148861044
0.9348235239913593
0.9917412074323778
0.8197526405245729
0.8892549501082037
0.9900742699760702
0.8882357958613922
0.9863528242118947
0.799816430898222
0.8678714982565908
0.8205973549402145
1.1122993318088943
0.766937578282324
0.8709653200244579
0.936331460338346
0.7615280671500579
1.0390411166822888
0.7509568964342233
0.9574395563866802
0.8181551057519915
0.9400882967791668
0.9296864646351222
0.8024535942956118
0.8979061195089343
0.7241311464278297
0.8915841369354044
0.9988720527638929
0.8500954604576765
0.9802621295321329
0.7864031767346708
0.9096164702924128
0.8963917476208818
0.8441775681179536
0.7433570045485052
0.7547861599567022
0.7457762145627902
0.6526473676174506
0.725312351621057
0.583109886701115
0.7870790156479828
0.644936540536713
0.71853273114956
0.6627097584497263
0.7438668350385577
0.7429123976743187
0.7731245957294132
0.7053430677320814
0.7033544175651291
0.6524794931298755
0.4595378674417742
0.48317864953253653
0.6971169923742203
0.4158259431098442
0.6963220666504796
0.5880522438109173
0.6976951529369322
0.526435143936657
0.5944842937656087
0.5173724536235252
0.44442359231992856
0.5908350585700168
0.5451041190124369
0.6878941878326253
0.587718770810171
0.5930953093201162
0.37400871945486625
0.5604158160946756
0.6042069754578256
0.5005978274894715
0.576950624487701
0.6560996967714238
0.4516303707583766
0.5140993162905767
0.405200681091282
0.4056150244448921
0.24875123333970164
0.33797281383759364
0.29943015910384535
0.4207011928592094
0.4189605698875691
0.4805680326125752
0.3908774806970006
0.4682279091532424
0.4890025611177865
0.39398691766983057
0.252334460071867
0.4280875811658187
0.328760556942513
0.38485436642659143
0.34547902862745167
0.00825774198621565
0.4558846611721754
0.39164258706156063
0.290969256109101
0.1895967450041312
0.305324951602834
0.21826068961455386
0.21091450272203527
0.19197779903454082
0.15981948990015632
0.24979965247654493
0.15678666615793851
0.19122755961839766
0.16959307528194195
0.15860833480335879
0.21465725400051783
0.21361239919938502
0.20477725229856608
0.18172416965651111
0.1374826708758306
0.12165815279379578
0.2511574370097561
0.07932341634220114
0.11944950056551684
0.27378206817854733
-0.13979635448051253
0.023873645918550457
0.0920389009458146
0.09947538941154328
0.048468989550398946
0.02472466194200962
0.12117964192652268
-0.055222364617992244
0.0983506199749398
-0.10067641091669381
-0.11107670651811621
-0.03086703944849547
0.027734413693939655
-0.16787375722060877
-0.07154248004654915
-0.131986762862594
-0.13470640195709657
-0.14749807122052352
-0.19870942271279843
-0.0023518837131513426
-0.2996103064183544
0.06348756018834362
-0.16658993280344608
-0.03298634182967876
0.02320757704272608
-0.18958044963570364
-0.31257828311243635
-0.1999521280583595
-0.09067106717586083
-0.223314316957195
-0.16109624948314705
-0.1948288888225262
-0.18481982928721044
-0.29882227116785
-0.1882233472060597
-0.3985951444266066
-0.34075301890212173
-0.2018351333119293
-0.24638080831309617
-0.3166809368895685
-0.3250643900779729
-0.10063364586963164
-0.5145809474773425
-0.47033522957795415
-0.4418055372695351
-0.3965048084215617
-0.46977187377875623
-0.28245053951913524
-0.4731376785945125
-0.29795320952287807
-0.47498958690606957
-0.5644548055897662
-0.4619403060948814
-0.2632476997733677
-0.5171419552679105
-0.3804257022340929
-0.28496002654164654
-0.4380823835867974
-0.36683359998080944
-0.45417222012543906
-0.41124130757723715
-0.24225788709770651
-0.4653666485473886
-0.5934918873614653
-0.489849549977502
-0.6863448834633549
-0.5080617424792785
-0.4054525596865236
-0.570558477265291
-0.6096519735861823
-0.6724234855118506
-0.521429723235675
-0.591986217304303
-0.5986682016959549
-0.7258600373851184
-0.58984423951978
-0.5135155299359179
-0.6988304333727836
-0.8026244433483071
-0.530265354254932
-0.622711059782111
-0.7758057587072547
-0.6091750571641291
-0.7353816703972799
-0.6009552103862468
-0.724359834204791
-0.6487580693476672
-0.6205444072751339
-0.8112466178940405
-0.7467771498276876
-0.7262506526127118
-0.7827111907497277
-0.7425467833957853
-0.7990999141795163
-0.7338589664194419
-0.6400744781474433
-0.8402474478099183
-0.8034269048946339
-0.8931791123979523
-0.7740446895974703
-1.021391727361363
-0.8410960887414876
-0.9607003930429859
-0.847106100457688
-0.8958734835570893
-0.8185767845064151
-0.8493198943435181
-0.8254413151187227
-0.9624025799557511
-0.6424115947390691
-0.9708144084437799
-0.829990576408588
-0.5840924463915604
-0.9118815025999222
-0.7449814523592955
-0.9928661231916994
-0.8061161243055824
-0.8674228064819011
-0.9195597305438633
-0.897589065661906
-0.7657035155958579
-0.7089954799606883
-1.1450881692170543
-0.9301198514534746
-0.8850210336195771
-0.8019032364657243
-1.0162065517545054
-0.858961134099895
-0.8918102632034035
-0.8621312976704142
-1.0770538426380645
-0.8318937003760463
-0.7921896057056921
-1.0514078482206897
-1.0340889691568464
-0.8283266405731111
-1.1863560575992038
-1.0464931007186233
-1.0635117216778944
-0.9571596753961787
-1.1215255945053957
-0.9339671848581975
-0.8732851208546988
-1.0065644665976925
-0.9493328035376762
-1.0520967505374077
-1.1886551651704043
-0.9074313716778727
-0.8917766003007609
-0.9254033307795804
-0.7779455830569256
-1.241614919195353
-1.1206582710668345
-1.0945207368852368
-1.1792731161814136
-0.9000692652645926
-0.8367439379313004
-1.1420003143608177
-1.1198211498017245
-1.0108923137461483
-0.9740409587727129
-1.0091763143865462
-0.8809205722913794
-1.0802758813344597
-0.9902139668442979
-1.1596231549456044
-0.8744409410288938
-0.9653702633760012
-1.0357956482015251
-1.0399372136899525
-1.0244381282978383
-1.063441907362546
-1.0308106250298132
-0.8552846880799269
-0.9740822247503721
-1.0686061188406706
-1.0742301599737254
-0.9657867980438128
-1.0945344764926477
-0.9609580803984931
-0.9994218523335148
-1.0932526728886114
-1.0236297986585547
-0.9434357711622219
-1.010787762584118
-1.0456678351004522
-1.1253045651570779
-1.1005021837232696
-0.8717736284958982
-0.979120152120768
-1.0582532852220403
-1.13196369615579
-0.9724786072357083
-0.9621999271809494
-1.1506150804617783
-0.9203255983108305
-0.8843231882733038
-0.9750088213654753
-0.8934981427814336
-1.027638127077097
-1.0692455918270212
-0.9035899409835555
-0.8801139990143558
-0.9553118749210521
-0.9079446674663995
-0.8434780638209379
-0.9134514006107461
-0.9429216013893998
-1.0378332142829458
-0.893429407037211
-0.859730092930065
-0.8417096935928877
-0.9643303469981741
-0.8655766177443802
-0.8527102908461032
-0.9124242800037254
-0.763948839660816
-0.8662175862727417
-0.8704656533392399
-0.8507960825996945
-0.6991284617556959
-0.9645732723918135
-0.8598005062247424
-0.7011388787188251
-1.0555937761398722
-0.8782431031251132
-0.7802844623581942
-0.7764399118675566
-1.0081334394282977
-0.8117309515502396
-0.7440895973070615
-0.6773026637307432
-0.9002325212645175
-0.6530327760174537
-0.6680730523811245
-0.7553257082273174
-0.8666975645938436
-0.7085252342092533
-0.7912660299148094
-0.7077471016520955
-0.6901845749710502
-0.7793778579850222
-0.619900930306262
-0.7912069204620923
-0.6882214131149315
-0.6702940505901726
-0.8650846799542594
-0.877353081088694
-0.5797508167597677
-0.6987719268355784
-0.5925616427960785
-0.7185550824178799
-0.7237827227879443
-0.7871907621946109
-0.7206168180174118
-0.6511816003565576
-0.5196199685020417
-0.5587795282793104
-0.49886247995659216
-0.7033196748869237
-0.6216139255152696
-0.5468407239216894
-0.5325683250851977
-0.6373901854866768
-0.544742883632168
-0.5665328295343041
-0.3073273078662105
-0.5897758585442869
-0.6241738826701407
-0.40161376046559627
-0.38510638280086995
-0.4498485294698169
-0.48608819585213237
-0.43983731386222824
-0.6920820043700776
-0.5180834775178186
-0.6124589766873423
-0.4736600326187596
-0.46169162723064405
-0.5467991432570036
-0.3627519359572636
-0.5190784599355651
-0.5199077818751523
-0.3403391402304032
-0.5413560900603013
-0.49340027736342196
-0.24898728752197724
-0.36766856278496074
-0.3459113006523809
-0.2730824126344369
-0.23109612223925147
-0.3040975821098319
-0.17837791921238796
-0.20460822492605418
-0.31360118518716673
-0.28889477596053337
-0.22291549352550116
-0.3431383706422986
0.06254391177340651
-0.3939302999808348
-0.21042831892911917
-0.19522110276731594
-0.18579965621644154
-0.04675940246184124
-0.29721273657183983
-0.12881846430632346
-0.22753451132253716
-0.2569794026251911
-0.16209331074890437
-0.09767350545396353
0.08619859091998196
-0.03741589154236184
-0.12064740042886785
-0.18555993076354918
-0.08472048222826162
-0.06888246560079214
-0.02208847326892969
0.011906089505354989
-0.03272039135896922
0.15338101429188697
0.06453701407485173
0.06732347811763825
0.0037510806755735363
0.05258278953004758
0.12857470281228334
0.06825378768226475
0.15689317412513157
-0.16094670531302044
-0.059069515007900315
-0.12836376208725386
0.07624885079861776
0.14770869292591474
0.10022923817541128
0.01825109532071549
0.11154261675244695
0.07474168408801793
0.15868734256144823
0.22916282994861747
0.09726988048788575
0.24283612830141393
0.36793519390557433
0.1087350641734475
0.19106557976384997
0.22374902459316384
0.21304375059441522
0.22484892811173376
0.2516133406631922
0.25917082384517504
0.20627626518745734
0.36214021852389217
0.5020523684033164
0.3416300847657607
0.3568256554285054
0.21819083984120638
0.26171445481534106
0.28511695115314
0.28000472131325094
0.42188425981822
0.2671574721287002
0.3953965914583745
0.31987149992045216
0.5468518707340914
0.42580319317423004
0.5014296980777626
0.4371519225275042
0.5744988270110699
0.5642961707304965
0.45970300917909007
0.4392522893200559
0.48614789925669033
0.40478533291223806
0.3961976315335115
0.4739299734673239
0.5072286224355966
0.5524062660034648
0.5513326849860837
0.5112432669693757
0.5037756046146519
0.46413395813552005
0.4376863512157527
0.5131385483816489
0.4984180517059014
0.5019819843741886
0.6442108918057174
0.6145850112108502
0.5831021562428259
0.6145171465373069
0.5356659012850014
0.7059976203495477
0.5763271537287183
0.6955192833092294
0.6074464478889374
0.6464185460141915
0.6905659258045996
0.5638073127271008
0.5933592077775076
0.7222119887928455
0.7696282703813843
0.8153266808887542
0.717453919786427
0.6687697447854807
0.7046200664271085
0.968123503030736
0.7080106177704927
0.8112207114892711
0.7536327669269955
0.6755070294438109
0.8734199125093811
0.6922126405069124
0.7364992253931315
0.8607788611596263
0.7275342671047874
0.6168010701980953
0.8047431440029414
0.7886519026458799
0.8147013057993013
0.7570622598373427
0.885420613341226
0.6984464197432687
0.8291505062211909
0.7358470318445255
0.6814722215741875
1.0077924643486815
0.8623623528150464
0.8030877517575686
0.8289522508421832
0.84608128107392
0.7851194411785957
0.889510124658188
0.7601645159091718
0.8250704013423751
0.8471637002881294
0.8696123983690017
0.8018406732822392
1.059515273858204
1.017337929563904
1.1010837636018334
0.9285633529717917
0.9504564730388351
1.021911528953557
0.98573395773177
0.9954268738381367
0.9554144464505294
0.9594037442066868
1.13303936659779
1.0328159244416473
1.1270640601396154
0.8595777996291706
1.0360240237960459
0.9636029087394152
0.822778661937561
0.90888132623324
0.9197677363113788
0.9057664982402079
1.0222687050960435
0.8714568053359371
0.9903081306421503
0.919127731857839
1.115293991179583
0.9488677669004308
0.9158653164970201
0.9384249272480866
1.0379987968892708
1.0062588841898639
0.8670708389965095
0.9141824134847202
0.9678848107269313
0.7857841290885519
1.0320995695241084
0.9169971478211941
0.821637314460692
0.9575979068099636
0.9665249018454822
0.9442696404622054
0.9666890157693233
0.9930000475213979
0.9697287645731942
0.9774892900729779
0.9820437831145145
1.2354687645962152
1.1300755809978151
0.9309298005287767
1.1881988288022858
1.0630472517078846
0.9804018319444125
0.8853149283908164
0.9402322691037575
0.9388402512188389
1.1593328548105433
0.9431603582511672
1.034001943839459
1.2797924582404518
1.0499129992760596
1.123622771111949
1.097422483876855
1.0122139273894035
0.9592565878170872
0.9320379043812195
0.9663076397887814
0.8950742690211565
0.9412894110519833
0.9873791198590711
0.9751748986744222
0.899283310580733
0.9766839357742837
0.901824706837082
1.146185110662634
1.025132982255558
1.1649625391952838
0.8963180468227485
1.0811306904867315
0.95170649433457
1.033365154955341
0.9066360330334801
1.0426883337333306
0.8709519920288278
0.9731207615757443
0.7531694172300237
0.6937675307061817
0.7690410859005666
0.9550506207814515
0.8431619125105149
1.0008760540644228
0.9302391412565195
1.0271133890328294
0.9176066643511486
0.7943738092711928
1.0067507528483668
0.8816449655108063
0.828222071312689
0.8397495445164272
0.8036316203778308
1.0309376061823547
0.8439551869768804
0.8576596498340524
0.917332539246389
0.8546856653353465
0.8154680895072333
0.836989252138715
0.7991863630693569
0.8231208646352906
0.6933222767211673
0.6904693965364403
0.7484307182465824
0.78122668312406
0.8560375513605714
0.7318697176957207
0.7473220849427709
0.6635535190653303
0.7736803968731841
0.687493237333766
0.6954290786853812
0.768413455638368
0.8936262020705807
0.6215867395093794
0.5950049178855898
0.7151904699279609
0.8212321742569711
0.778714472044628
0.5994454766796555
0.7536938932885527
0.6470185987105478
0.705219349728651
0.5779250598098551
0.520517748786048
0.7088394257033099
0.6891542764216646
0.7282965637787778
0.7778744778199829
0.6246299805741847
0.5369962490901472
0.3551253470457608
0.6189543524026756
0.6401259913371956
0.62220751640848
0.6580123134949022
0.4684536349484889
0.4348846992487587
0.629233477374893
0.5380530077501108
0.6746825450640018
0.5135387550015139
0.5318226312326433
0.36531999411710253
0.6363930992632004
0.4380328026396775
0.5242787398486265
0.4980447915775096
0.3893784883261052
0.3540204433842916
0.5092136019650313
0.28286204290457756
0.44409530879859405
0.5222158877397454
0.25569893077819006
0.40876280699819234
0.4583680829539359
0.430538024598181
0.34013577342237145
0.32166807692010135
0.31226539948975895
0.3891196739563535
0.37668429170758017
0.4540527581652537
0.299811781906735
0.3460744884979745
0.3132046744643902
0.4130201898973478
0.10472408504551675
0.49822438372781025
0.16616349031424427
0.21936296633308183
0.3019172642089622
0.2686616875637925
0.4008208865479169
0.1762399136390782
0.29000683413713935
-0.009326336437254223
0.036301547348623564
0.293639400231842
0.17867810191989722
-0.020504483281267916
0.07375970074924243
-0.04948278184524732
0.05560942476270214
-0.034405459817642356
0.11509383750856905
0.051699215620187505
-0.01455256664013907
0.15104148307779508
0.045468749844549405
0.2579126334220535
-0.011951924596254736
-0.16739798583012905
0.10981287447481208
0.08150800563417775
0.20645322865959698
0.029156742571845723
-0.04912599061334863
0.010101865417105272
0.0790988663090075
-0.14931077285505429
-0.06300252295126506
0.012306778567421434
0.018496542892056114
-0.16396585831288302
0.030484815304613458
0.023255537459680953
-0.10383165073606257
-0.1057319434180702
-0.10532680807824882
0.02362416213703003
-0.3533565830945462
-0.1546771340305008
-0.10855229015734287
-0.15680835933629833
-0.22259909903286712
-0.23677913641712406
-0.18063109810174863
-0.3027184858525196
-0.09722916556616415
-0.3243635657908599
-0.27745127083149373
-0.1947826304837731
-0.4487852717539201
-0.24575808622136103
-0.25536530726955303
-0.28866115047545887
-0.36451669175931906
-0.30928008598488044
-0.2822388598622358
-0.3656145117085687
-0.216193908727587
-0.4549386866078325
-0.45113898723724527
-0.36633875834081503
-0.43543892674933316
-0.4770197581227278
-0.3303674855916453
-0.6240712202741374
-0.3516080631380278
-0.498380836598591
-0.5541751175474063
-0.3828892911378288
-0.44829198829494155
-0.528422444199516
-0.5147841575356799
-0.4641939259249239
-0.3139278791394944
-0.7902072404502776
-0.5174438214914615
-0.5160599041549411
-0.39208065439623524
-0.6331075219936437
-0.4458643915114512
-0.46885855211669214
-0.5976780823034513
-0.45843484743281016
-0.5501088411202901
-0.5387813746330741
-0.5154502791405279
-0.46130225946629344
-0.5812457511314066
-0.6729859805030056
-0.5606717287785441
-0.5647286628528818
-0.6236462698462123
-0.7647175161459538
-0.6720742050957674
-0.6407940929877464
-0.8481422878913145
-0.6599234330499165
-0.7187258243008587
-0.6975227184940836
-0.8310588434770219
-0.5848015975642453
-0.765183238752311
-0.6780032553786056
-0.8227469263361046
-0.5100543224030868
-0.7785750769186607
-0.7364900776609895
-0.9050642383463628
-0.898025348055213
-0.6317939621858167
-0.8384051811232311
-0.7619331060823883
-0.9262588908479237
-0.7354614298234871
-0.8589872314051956
-0.8973332249230447
-0.9435934697037742
-0.7858512598046733
-0.9354716819832425
-0.6690677630193722
-0.8940830272860383
-0.8381002972812363
-0.9405422064693096
-0.7325725381800997
-0.5637262114114485
-1.0753854893621986
-0.9378974643586957
-0.7441218155737342
-0.8929811591020983
-0.9404164690776643
-0.750440598483118
-1.182372516751586
-0.7972901289645562
-0.9259511278400169
-0.9371535599274724
-0.9132827629499416
-0.7254711210094992
-0.9430072505717303
-0.8483435107618029
-0.8738067454662293
-1.013900606714482
-0.8016131311849808
-1.0233560707144316
-0.6759015649318736
-0.8826363112366991
-1.0219007681051138
-1.118799176052278
-0.9580976105920531
-0.9728218800216974
-0.8866031315963139
-1.0289321706704389
-1.0140871776628086
-1.0090261090568369
-1.1261830671331747
-0.8111099665717916
-1.0204491151879647
-0.9385637073516694
-0.9271781740740034
-1.0664597154614506
-0.8075210841191507
-1.1360509824273655
-1.0180919465515352
-0.9902398974165882
-1.0134356378144926
-1.01204873051217
-0.8687765667237464
-0.9947225881817991
-0.949684487706812
-0.8556334849521827
-1.076829877426943
-1.0794964661515234
-0.9403296500086475
-1.0087660397512066
-0.806428037237253
-1.2029645051232691
-1.0683888122278202
-1.061489511673403
-0.9193738792601888
-0.9433682779883567
-1.0431820582639522
-1.039126136452043
-1.0782816770821795
-0.9526767060769848
-0.9808971743147146
-0.7510910490353497
-0.9835332148071837
-1.0522208855074384
-1.0294765408170494
-0.9908392893263056
-1.117343760601555
-0.791823011868152
-1.036453828216566
-1.0955705855756137
-1.1130922379737558
-0.952626705518999
-1.0065081361348702
-0.9656161338392467
-0.95476092721309
-0.9160099349783606
-0.8365096751446537
-0.9964374325488643
-0.9690276159801313
-1.1403090975973238
-0.9374849925414329
-1.0655596891430794
-1.0474848702913744
-0.7471734249987134
-0.9162756252978147
-0.7941558513905722
-0.887899703713243
-0.9763583750060945
-0.8177184691770315
-0.9583731383252748
-1.0200393604426157
-0.7551494700567583
-1.0615291806204938
-0.7805828476624506
-0.8254538577207189
-0.793948898844653
-0.8564757191220084
-0.9409073727302417
-0.8554046188930953
-0.9646466612035222
-0.8966450112660136
-0.8221292306602905
-0.8907235890847897
-1.0256832657606225
-0.9346458864997356
-0.9560454815042905
-1.0477672141767866
-0.86143394427595
-0.7474758222503463
-0.9721873688049716
-0.9897676314257982
-0.7546314110078347
-0.6922713229693335
-0.8113286059377388
-0.8167881519742113
-0.7796600496134324
-0.6117589175070614
-0.8977056869921085
-0.7775261212324835
-0.7064273695621366
-0.8398418685488966
-0.820949528392171
-0.8557296608933758
-0.7559406725568399
-0.9014176960030398
-0.6761358094520031
-0.7541707308510291
-0.8179465687457742
-0.8188587851074453
-0.8109094108926245
-0.7080295970324046
-0.838384480026411
-0.7240864597302168
-0.7015402359318468
-0.6308436477498035
-0.6791207976113586
-0.6282242470570059
-0.7427143516683081
-0.7706538523207118
-0.6026412784244285
-0.5589623502264514
-0.5268836087828189
-0.6607223739288078
-0.7878007064383047
-0.6650078668735123
-0.6634025127444637
-0.6768557466083419
-0.5754542385571878
-0.5243994246109267
-0.752013993989587
-0.6518883952515258
-0.6256162312943884
-0.6460275981847924
-0.543960454015362
-0.4556377752441061
-0.5490841703920688
-0.6702640472854224
-0.43238859134814495
-0.6146839513668162
-0.6758836399379549
-0.5790083698180413
-0.512194800913763
-0.5160685979499183
-0.2930429585549912
-0.2968866209804543
-0.3354934382262187
-0.6054039792462267
-0.5820424327865944
-0.508153525760964
-0.5128430234473934
-0.43176313362907726
-0.23143593753274525
-0.48588516526496156
-0.34662467025088584
-0.38789297304380804
-0.3296396856631756
-0.3104106734560418
-0.4117047484180926
-0.41368389470474265
-0.3638890700865363
-0.2035358851968892
-0.2864375642399609
-0.43220470298806224
-0.22965918562411497
-0.20276194598003566
-0.35425534044163204
-0.34321356420134413
-0.35573906286796636
-0.24809286039792972
-0.04113652608980575
-0.1736062421842464
-0.09291843035310965
-0.29202717731610145
-0.05618623369704212
-0.1798168718981743
-0.23483340944442807
-0.34371143309050234
-0.30299356986240755
-0.23328184154899512
-0.09909422321020363
-0.2214320436337304
-0.1000827232566864
0.015795410984803346
-0.11588357279202445
-0.08760944719443202
-0.21216850597343703
-0.21738276210978597
-0.12113294524565153
0.08101290263188621
0.14265645323137713
-0.05001684595995104
-0.008435876204005228
0.04034893763012732
0.013862021369984651
-0.044550854825877825
0.04434336966601834
-0.007509713991196175
0.004161476975521772
-0.06787067450702622
0.19650880648654076
0.11280397473933224
0.00856621620395663
0.06680386233310943
0.1464356995941618
0.15017425389481834
0.025148157143694075
0.10056993470389058
0.027091487653603127
0.05407423493555623
0.1800876466463618
0.06328666175217758
0.03019499206840573
0.22933918773377826
0.31100155565123416
0.1472655870213269
0.21308362899248812
0.06601163515424768
0.21975156698099443
0.16409514769633524
0.22116745056348397
0.18733253230756286
0.1990348778362021
0.27558130275360065
0.21330840307219
0.5026184589299482
0.5371591873071824
0.31940114018333776
0.32992917775647823
0.33831306703406694
0.3490697797902951
0.40944229217746003
0.5576091390244422
0.4004006229759907
0.4090020029554542
0.46086094981789255
0.40594399744448867
0.42792120418538665
0.5255998275776002
0.444112062266567
0.5682891593028324
0.42764534721683295
0.35867856858405445
0.341136027396454
0.6511325695620707
0.4993139452670159
0.5469580251492632
0.4531808532525337
0.5633688989192113
0.5661097820853581
0.3320704092084966
0.42374853493987796
0.5487151385816736
0.6828530543590857
0.5014258293964011
0.4724892438749938
0.6023314776246887
0.4451976626378691
0.7502263366413713
0.5937002274958798
0.4825894663581811
0.464941907295328
0.6939589486770851
0.7557484693885539
0.6277601734609197
0.7595427859718036
0.7614042234811842
0.8009367135088229
0.6332730981371839
0.8571596832195423
0.74016301212833
0.7821404372939271
0.7528588632955999
0.7571066030059582
0.8221279154995347
0.824156315270111
0.8098070855198549
0.5667801978410245
0.8281230011979404
0.6696843323611158
0.8033562372460442
0.7524194728560623
0.6236875177852206
0.7811598243549732
0.6778003413584187
0.7041001243669773
0.8587226794212968
1.0042572996563308
0.6882264362114779
0.9887476053255833
0.9299906568883992
0.7866843855832549
0.8386951275112737
0.9748444418541546
0.7483120717028533
0.9541350021730417
0.9734137682157962
0.7761513582362676
0.5950037732948581
0.5182223506178051
1.0231232072611418
0.8795324185116948
1.0678314150482708
0.7751588218499481
0.9344385234921739
0.9154840680229192
0.9634466863231049
1.1015264827014493
0.8499402108024083
0.9088762048004861
1.042227198842058
0.8760871457281019
1.087649803026121
0.7954629605842486
0.9084736672776863
0.8870993056580578
1.065481546014894
1.1160030584695635
0.8957008157128925
0.8409775753184869
0.8703970861166467
1.0357559298158523
1.0933698889212768
0.9587833868544041
0.804243765161676
0.9763052666265281
1.0584872379625139
0.8549220371884697
1.218485904511385
0.8578743996572624
0.9401015016336766
1.0591124635326568
0.7707890025036734
1.0528201006209208
0.9535459369194439
1.1038489821705177
0.9113502721454538
1.1259411939707993
0.8348605252663782
0.8090393206779527
1.1223067102086544
1.0730469942975287
0.9990938606801456
0.9951513896632495
0.9478149416208482
1.0241885739404801
0.9548580698787669
1.2285454403929765
1.086029251901214
0.9433900411386166
1.0350557562298184
1.025211060712672
1.037386971849274
0.8024884779254007
1.0532832578515416
1.0890705682356165
0.9962861731035462
0.9975455711835378
0.9437780509598042
1.0226812631447113
0.8758913611072578
1.0010824640487235
1.0941038335794917
0.7836941353868165
0.9718155919804059
1.1855396573075996
1.08838239146518
1.0806283066025708
1.0298815857806878
1.0703812931232037
0.8519585155655472
0.8957096732931413
1.1219130828161468
1.0643174062835803
0.7281345883210675
0.9121061305652973
1.0695630395580715
0.8187440686608524
0.9616894661883566
0.8491995197904251
0.95097284757242
0.8486763202461116
1.0006331134594189
0.9408037211404288
0.8977400573880371
0.8767362733051699
0.9450813606150702
1.0773177971667907
0.9248347887145852
0.665197987932002
0.6789707992206144
0.9673574358714613
0.9237789888236464
0.8645708730640341
0.8219705202621927
0.8776281957162146
0.8920067787520501
0.9865982911600247
0.8148137362994644
0.7437814866082099
1.0239829380980183
0.8226871556860268
0.8136402500332798
0.8954721889531133
0.8172926019936285
0.9288768067096624
0.8762270947926698
0.9493064167155454
0.8752932769825246
0.8255699327254765
0.8280153857673646
0.6539437343157793
0.8091532751229268
0.863257176562839
1.0184067423019392
1.0095192501000325
0.948337657281481
0.8297658494088905
0.5775204802751324
0.7334326451230487
0.8589433980596186
0.8400297817391305
0.6937953493303322
0.6240921475012584
0.7554928814646481
0.7691341306216329
0.6941320342977969
0.7326805061865941
0.7284140581951342
0.7374758950335307
0.81772279479055
0.7812000255786087
0.637609579150377
0.622503803468774
0.6847951938070395
0.5056042825617508
0.6630312834289986
0.7083256124108458
0.6198242466865258
0.5732539379838123
0.6144988272746233
0.6304540436133484
0.5612197793706675
0.5779001964679086
0.656581611536176
0.5339327794993992
0.6209292000557076
0.5138204894253128
0.5879243341097029
0.367682188453304
0.3844107285229135
0.38140016682079014
0.5049349646012322
0.5356647846871582
0.35558415112785147
0.6139046711970448
0.43747878380709826
0.5360909434865403
0.38227776439815786
0.6377256371820677
0.6208927337582542
0.5675268690765045
0.25861680652761754
0.5635256585649214
0.5336454108520792
0.5080131547770302
0.36393686802415803
0.3309828857667714
0.3320265136937811
0.2877883627844918
0.3648675214779782
0.2757379101134569
0.2894421760830304
0.4962216218780698
0.4661558679913559
0.23410168696047823
0.3966244353771144
0.13257738426608498
0.3994755318008524
0.43773347373996785
0.2884593316780799
0.3310508842320434
0.14673671721484907
0.20831010537579536
0.1817138959831346
0.15720246212352246
-0.06652823104505004
0.2625535153830074
0.061980202853246624
0.16493038212760983
0.16546065046252365
0.20927344639870746
0.1964425708276369
0.15653351589474332
0.17859123056918413
0.14498893131781773
-0.0832405409420212
0.21326239437601116
0.1431359032035316
0.0582023364088165
0.11838482925112889
0.17110135820692238
0.054417167723868044
-0.031513307212806964
0.00445370212109019
0.03745621791026239
0.021412791334543286
-0.05283974395136872
-0.046461007791288096
0.02432198097207954
0.16556393826762564
-0.1331745517718635
-0.20270946185974628
-0.02659287753717881
-0.07813672495221631
-0.17306400611037448
-0.019000608964049703
-0.04822289312837422
-0.16752064514766601
-0.023910914713561132
-0.1946502742841651
-0.13633154272887732
-0.18153215832474956
-0.18404791854364633
-0.1950520860657442
-0.12459684515848013
-0.3195524843091429
-0.1084503617465246
-0.36219216227337636
-0.19711826862913007
-0.29418973245018987
0.04657462785635905
-0.20271338176437365
-0.3987611569610665
-0.18977165373149074
-0.24767354785683904
-0.294703414813405
-0.4904032845492855
-0.22861662103301067
-0.2770961141119654
-0.06067656907174712
-0.3648626202758849
-0.3411861236869985
-0.3067742810126621
-0.3957393119221316
-0.43474318175888493
-0.4274098543999239
-0.2321972473865428
-0.28768323437811366
-0.22977290421863433
-0.49152848649035386
-0.6115271674731645
-0.36732244814609427
-0.6283139601874591
-0.49396629128848857
-0.4929772919768306
-0.48822429584292903
-0.37641032662745083
-0.6209959389077065
-0.5094895735862155
-0.49006067567431955
-0.3214475761189886
-0.5514791777524994
-0.5901902783486962
-0.5976162452767572
-0.3909242133685069
-0.6852934681150379
-0.5440960412574468
-0.5883875274925296
-0.6441712873376014
-0.5930347209978163
-0.549418499609883
-0.6420605245093246
-0.622831866639564
-0.5290510344152459
-0.48865314908413415
-0.5606812939154058
-0.7295491395629269
-0.7330386722484119
-0.6240921771120649
-0.6917054030026839
-0.6952941177168277
-0.6466948555343474
-0.7503001825378168
-0.6538014435392316
-0.7679625780979278
-0.5648623903086454
-0.7516543103959281
-0.6661552806960298
-0.7456480147181931
-0.6672003263739132
-0.6913460631274961
-0.7876109015599131
-0.7255067162426564
-0.6746489366779124
-0.8229348448519485
-0.825800492223001
-0.7665356156134636
-0.7610209488108303
-0.9897230622215238
-0.7982753191340858
-0.8586961817962598
-0.6427619965099577
-0.9421902463527485
-0.9459198185555385
-0.8905747420864657
-0.7075345768754624
-0.6373704941250554
-0.7423693663707083
-0.7513210168030519
-0.7796476720878202
-0.9471301327868972
-0.8262899996373886
-0.7678844197360775
-0.9055030545484068
-0.9140628628377692
-0.8475559374769912
-0.9087986495512727
-0.8961232554313546
-0.8952583323020401
-1.003989504821467
-0.9662092235439808
-0.9279336869202585
-0.9495518305262829
-0.84565570456265
-0.8968785395264518
-0.8981943551971441
-0.8383078021513701
-0.9119192290374106
-0.9840872051484612
-0.9943857949526232
-0.9546144496533174
-0.9093035917331054
-0.957472970890119
-0.8656740638262486
-1.0298657655455743
-1.002456386413351
-1.1843858988985854
-1.0028218336422379
-0.9650271328624952
-1.0206609226049623
-1.0624658218810075
-1.036248491900008
-0.9863325165586542
-0.9057844385822389
-1.0953214479557465
-1.1325815527106495
-0.8376286218870789
-1.173561602865018
-0.9561298216707693
-0.9581550709970789
-1.0639044049729618
-0.9755959866214307
-1.0946193188237792
-1.002210462323717
-1.0647380629005392
-0.8925389085707607
-0.9657957480074139
-1.0714765762543583
-1.1590761319277556
-0.9489326699834517
-0.9964024087125353
-0.7478240787916295
-1.00303065390555
-0.8731226283529783
-0.8081663774455239
-1.1043347238530343
-1.0814006817846338
-0.9462717826123045
-1.1018768626504585
-1.1349940674349996
-0.883645450527142
-1.0715637131827334
-1.1085377925624222
-1.0577707488359573
-1.1608583048079637
-0.9507079299060147
-0.9469792465210555
-0.9087930401645592
-1.058726117596865
-0.9455810899176703
-0.8613501375291526
-1.2514760705917531
-0.8858004667409441
-1.0842482373052624
-0.9805034356329777
-0.9255301744404559
-1.1819385499099169
-0.9245538902314048
-1.030320456293342
-0.9822792294409017
-1.093535082942204
-0.9162784467976925
-0.9997802457722885
-0.9020143794017443
-0.9839575212159561
-0.9604504627628564
-0.9195357989626997
-1.0052663498683567
-0.8662182941112188
-0.8904350433663749
-0.9031929445191628
-0.8771219571417854
-0.9954725065353142
-1.0234764562259029
-0.8124174796777079
-0.8927744018674129
-0.9785547483857514
-0.8763651949656887
-0.7767034577011498
-0.9339936358424725
-0.868151517751754
-0.8414574660723038
-0.953391547447142
-0.9130805669938555
-0.8300615251630692
-1.006939385001911
-0.7247941143389172
-0.9764383476376284
-0.9391405399508923
-0.8821820853298977
-0.8533864768140931
-0.8127513369406394
-0.7457665753503464
-0.9704101877583979
-0.9445803192312457
-0.8930859157960831
-0.835329001027074
-0.9017511860128473
-0.682499301891649
-0.8368609909469431
-0.7755363196968393
-0.9066283851559241
-0.6617884240537761
-0.6543223287682625
-0.8478325741810732
-0.7772826867516817
-0.8431193612941218
-0.8066825560284154
-0.5281008509325655
-0.8445153947010523
-0.728196526054442
-0.742208883861687
-0.693764526101719
-0.8813592081731034
-0.5609022075901687
-0.6258877136655825
-0.8070797632720931
-0.5710398608797995
-0.7579646768608286
-0.5687840961729258
-0.5401927145810891
-0.7376765956533764
-0.38323608432362777
-0.6389955538545571
-0.7602473869473974
-0.6932827297478008
-0.6448304054055377
-0.2665886099340075
-0.6903432179422201
-0.5796071850312513
-0.5071465259209361
-0.5480163386585688
-0.48144343012225604
-0.49946881559282763
-0.4677203767141853
-0.5269344524832001
-0.6184879643330184
-0.41975124538464426
-0.5829308315019427
-0.6166051584643197
-0.44741988536596733
-0.34314182291656986
-0.5582424193089115
-0.5022101174158182
-0.4252802296899144
-0.5245031619622569
-0.5445397600637205
-0.23997930119139033
-0.34687767034718
-0.3500249042006936
-0.49189995399585634
-0.3749004971692671
-0.33041105407877314
-0.1718454632615679
-0.31393514675449324
-0.4878441890038083
-0.4281570743481019
-0.32946436019491754
-0.30115704367198
-0.3935822518917427
-0.285550586508496
-0.37514450371460545
-0.2276329215657024
-0.15752810487970437
-0.41387767164150846
-0.20143960826339158
-0.4283074487097412
-0.23091955311697857
-0.41818860900019444
-0.18699425927962177
-0.24835332726056858
-0.3030308449582249
-0.27580881781197497
-0.27055471320576197
-0.29171700244547294
-0.0337875317030881
-0.09964825306567993
-0.12003089910781606
-0.09386331641144245
-0.10355002248138638
-0.03496382104224795
0.07581069163338111
-0.07943271050003425
-0.10717449313058111
0.07724447022636655
0.13331889315100845
-0.044833153721283325
-0.06392486450699486
-0.0741557051233809
0.03062483158346432
0.025935640724321266
0.16610963977824075
-0.09941971103316355
-0.07708355243570064
0.23687467540501114
0.02486674208502041
0.18239899307634655
0.13553756878002085
0.17832386092031127
-0.018188706181643477
-0.0010618277199884035
-0.14930914097961295
0.17637239039461552
0.01698445830203396
0.18479779987927716
0.2898058948866837
0.39867568765083855
0.32933103061857133
0.01798991377326986
0.18064480294233867
0.26470405722560536
0.20288072799724513
0.1351860473604803
0.0632698504854719
0.16496027365773214
0.4264454365283886
0.4156970080557367
0.2243372762603794
0.1777302590464187
0.29709401814491526
0.18482126207162636
0.2623718610356157
0.1497355753829948
0.4137225923590636
0.2764418512934042
0.35828733064310175
0.5738966247261904
0.47721043433414084
0.3941789505727823
0.27712468007029956
0.4756069947552889
0.45292869860645285
0.4168778194379681
0.30744542673414954
0.4868831206737845
0.5072014793994088
0.15789255828436982
0.5824093448517892
0.5157428392911801
0.5851935931164186
0.5220141261358919
0.3407283575387481
0.4637139092226372
0.4912491417145674
0.43759385393384276
0.5496767877021596
0.4947437317916915
0.4909299666154985
0.506413931064548
0.45257030756411226
0.5935903061995452
0.4444436576982935
0.3587409249792206
0.6890096623298126
0.6954954743800836
0.5308305126932167
0.5742394662302565
0.6148862073692963
0.5641743218033267
0.6646610416143652
0.6679993233599634
0.50818880141055
0.668867759564599
0.6170913183748269
0.7386778262580577
0.8799906846228159
0.8126737787057441
0.5783986718717699
0.5410509362527454
0.7770506711485239
0.589919314154246
0.6227637288208937
0.9396248079378149
0.835848113809603
0.7075831210687299
1.0053626725665026
0.782755891475576
0.8067686348981387
0.869022719848566
0.6422377371627731
0.761595696214608
0.7372461924353818
0.9878255344935184
0.8797243105424768
0.945567909676599
0.8125099527886008
0.7605889763612685
0.8591418948237645
0.8599532064692756
0.8919052734100651
0.7736373724781186
0.7179576213721969
0.847959020695864
0.7870427396151102
0.7255027533795312
0.8193289828079591
0.7798490781930182
0.9815471164983954
0.8751983174726672
0.8230684028129466
1.0601058125006086
1.0057073724030576
0.9271109547910518
1.1953944023260195
0.7654165007571048
0.7564730782980755
