ECG
0.04692893784867662
0.044540996281031
0.04451431946933433
0.12434902776307324
0.09741432567991323
0.22099189572459985
0.23611949311953903
0.2802769382453027
0.2869608487633899
0.3214780867279186
0.4115719453181921
0.35136548558479697
0.4918319357965082
0.5222544664899904
0.4738968279374028
0.5458985858876487
0.6241315195201634
0.696412084894507
0.6924628524546126
0.749510077621276
0.6716479691645708
0.8711883690679686
0.8926723920499957
0.7927152261534959
0.88630779751661
0.8692717377954957
0.9966053697777983
0.9082667195818674
0.9906072007873786
0.9417394218253048
1.047610145191736
1.1068321285625102
1.1224356939043696
1.1080819636300976
1.10625128379899
1.0977176391806014
1.0755539959484497
1.1928051970985982
1.219909695211133
1.1656637831695398
1.1018075290687355
1.3227253816255187
1.188102760340544
1.2728784246271363
1.2428159795572897
1.2628220619481871
1.2033960805090809
1.2631361211172085
1.2969677788694554
1.2962822375164067
1.2301124064602003
1.2535725896242969
1.3818104779905798
1.3165507829304333
1.2700754869762771
1.435609374469962
1.3106409835653017
1.2175317467464275
1.221637147747926
1.2813576638213786
1.2322934546638522
1.2552946539526293
1.2839193705067864
1.1940572002983993
1.2253201146427881
1.2320095616956006
1.2238642689171493
1.2471998554589985
1.1762003885588082
1.1979967821056383
1.1710381822246314
1.073720828801225
1.1258996832889376
0.9893276797632005
0.9537703901701186
1.0574448580507945
1.011773526016502
1.0272862881149163
0.9961843117596912
0.9392390879238397
0.8964914745990398
0.9167219022104122
0.8665788937378346
0.8263895807076354
0.8170605823526264
0.7301983585371666
0.757759220310123
0.7152675616285721
0.7436342542236812
0.6881150808629176
0.6642668042237575
0.5523939691916095
0.5787106860651178
0.584273541120865
0.5517669464332293
0.450863732927822
0.5195239055894751
0.5019667526171786
0.41125229681288544
0.3113679026005583
0.348431194405863
0.38722331237452257
0.22687767684543605
0.3379998427509437
0.19649900949501897
0.2802500396620889
0.18889294854901034
0.12418503766926843
0.05816004783860422
0.04024673297740774
0.08708317752185804
0.07645476104815647
-0.0545886363598078
-0.07756364754157774
-0.06518006261215235
-0.06301241740159234
-0.13337269645577315
-0.09099968512905973
-0.15316511218697043
-0.307043064733558
-0.1582425105460174
-0.2408279692085765
-0.3049861242950852
-0.41981257673276606
-0.26763550335990804
-0.4337027979623568
-0.36451043705859504
-0.3147425769066788
-0.35910979531493403
-0.4007893280451338
-0.3870326179478629
-0.4468232588538913
-0.372855607289517
-0.5082783598406138
-0.45268842149699506
-0.4734439180997103
-0.494952149036311
-0.5011918027803326
-0.47723931910367606
-0.48783684557796697
-0.5977472582633697
-0.4182221145147863
-0.5529309324882232
-0.5315285520107456
-0.507299556502643
-0.5246329973770696
-0.46821251840820693
-0.5368441192704106
-0.5349767137676652
-0.6135558260311238
-0.569636979813929
-0.5440883808109198
-0.46786969738521766
-0.4623389108048828
-0.4768461784478834
-0.4906268648553503
-0.4433975241678646
-0.4789129758970712
-0.39207304858292324
-0.349803334513176
-0.3665667969356637
-0.3681806093941883
-0.41758899384874937
-0.3866626333982193
-0.40861798443703373
-0.40972279559894775
-0.21632460478102036
-0.3402914858994256
-0.2646907534620397
-0.26733369611920593
-0.19789360071186093
-0.22374987924404335
-0.2464443840365509
-0.207435085924244
-0.1779446808831858
-0.08510968784557918
-0.17327835072880549
-0.022088336689159868
-0.022850125165319292
-0.030103088209448
-0.014485457060218565
0.08717480809545018
0.017718336936101156
0.215407392256051
0.07017427109627436
0.1551853316078972
0.11777188952711933
0.2063697515839893
0.25336366608530675
0.3013847110631426
0.2977203724596891
0.25553727564821455
0.30526135996127823
0.38913459224637015
0.36369623094045944
0.37493649731312295
0.43137763090444503
0.5000299197507625
0.5281583729170111
0.5713658828567377
0.6400252603211699
0.5564410384041625
0.5764708981367039
0.6542136563977625
0.686983721126392
0.7727765059671459
0.6713697115840694
0.7028946053265841
0.705622866547325
0.7376361968397299
0.8608909282303765
0.8551194411179782
0.7856245487325749
0.878981799205778
0.8918670819440725
0.882918877761185
1.0298613558540883
0.9333060909530132
0.9552390866918777
0.9428104641620442
0.9642104695076652
0.936116042893195
0.9303572025888964
0.9932958687002714
1.0168357705587165
1.1296406762800821
1.0398199341332592
1.0177083430498315
0.9375098182061675
1.0929917737574324
1.1056530967028566
1.1245121673436531
1.134415521012984
1.0196212426010691
0.9811256082339552
1.0959375877931377
1.1301911206948534
1.0604229243313406
1.0157439617729802
1.113494535849379
1.071817703163168
1.0277745930289268
1.1043289336128534
1.0226881382905975
0.9933808321129249
1.0871917783094414
1.0189505074307073
1.0490493367317975
0.9538405072049648
1.0402872271705161
0.8947939726399383
0.9458887902413974
0.9445320098143203
0.9153712309056017
0.9405319205276474
0.8787051467320474
0.729550124426607
0.8425038487628878
0.8042867229755546
0.7370085951407677
0.750505054495713
0.6592997341328266
0.6645087155941867
0.6851058293732355
0.6519988592605958
0.6161347235511535
0.6342599900853689
0.49665451816564044
0.5507927073976686
0.5988244109098934
0.3936162634678069
0.4079209524999219
0.3340228114660109
0.30003791595517715
0.2619380540691618
0.25652071275921917
0.2712968401091098
0.24479073143049082
0.1583060385999599
0.15862054432301023
0.046808065759531586
0.0329869639352694
0.03845291053020462
-0.024608201780422664
-0.015253757520229623
-0.13310641659858716
-0.06522200328759593
-0.09022800971579054
-0.2226546958612902
-0.2291618402001611
-0.3382454901275069
-0.3799580886413034
-0.36569697694314746
-0.41694483844618324
-0.46859087385643305
-0.49976619676125705
-0.43005380484112055
-0.555284177207903
-0.5083580008160995
-0.5412742906020203
-0.6639682918471795
-0.7266921330509205
-0.7695351580521338
-0.753971075949487
-0.7827971178762425
-0.969070673390538
-0.8778378347771786
-0.9088196979964749
-0.9256409061283444
-1.067073638332449
-0.9922805713536283
-1.099292747558497
-1.027707766900851
-1.0080094666002581
-1.0928979892493087
-1.1487446673180006
-1.0328979941053622
-1.2212200023784414
-1.234466265902164
-1.2052473727938362
-1.2779242711937646
-1.2903795650562158
-1.2658568731388138
-1.3398838608493782
-1.2941975155801317
-1.3368309138628376
-1.3849164775506058
-1.355477560888378
-1.348466254354346
-1.3852513501723174
-1.2836010627323409
-1.4347550523675439
-1.3537417022272498
-1.3906166593637634
-1.446456513526126
-1.4380742136303615
-1.4191416262638248
-1.4615079207116262
-1.4545580827496336
-1.359193683624755
-1.41827961059572
-1.4154767564036412
-1.5679750671130939
-1.3412191233763562
-1.4327988125104627
-1.4209272150937005
-1.4937035286163567
-1.3829677279842705
-1.3516311998228543
-1.3794524513796735
-1.3597715788967277
-1.3263782085647855
-1.3769086589040138
-1.4515803051607192
-1.3389271857292593
-1.2287224840192603
-1.2828575157908915
-1.309301241085486
-1.266138534269306
-1.2334548510347563
-1.240219398268667
-1.1648576008973046
-1.1174648193105106
-1.1030145381744585
-1.0351739642462432
-1.0516770296087912
-1.0747844304949796
-1.057761280615031
-0.9618089741940758
-0.9904919118401785
-1.0332632367921595
-0.9541851907753316
-0.9390335405315549
-0.9527476460964098
-0.8240515736725328
-0.8840387072193037
-0.6955668410762004
-0.6646397823856709
-0.7500108340637736
-0.6865935201003124
-0.6978902056044405
-0.5772769869577404
-0.4503614781252344
-0.5093572378148984
-0.4996810617201073
-0.4323111610527998
-0.46264403723600345
-0.42651943890367777
-0.30567828382364237
-0.4131562325338864
-0.3242052469137302
-0.2054251139572642
-0.3277663474175542
-0.25267867419177803
-0.2097262259863495
-0.14705144730498906
-0.0016492470498259554
-0.054289895814150634
-0.020302286708330605
-0.0012589669513599772
-0.006838019655998742
0.0016226437187931639
0.04642147966259863
0.12023189978622766
0.14094715117493986
0.1528455259341461
0.23545061855568883
0.2210858305981295
0.2771393963876343
0.3034210828082141
0.372156181416284
0.3148602068672556
0.3076968864316908
0.4270839468613526
0.4154281353921058
0.36620843972737177
0.41556817465002294
0.4177958573405349
0.4112376194198494
0.5603967826212517
0.49850143621740184
0.5445605807922743
0.549374598839942
0.5545826704358757
0.4963584598695525
0.6440972764282603
0.5285353359625508
0.5828271342934265
0.5023225340497093
0.5497388594315576
0.6649837331885805
0.598021781646534
0.6665003662098377
0.541494741055273
0.5943211121828741
0.5811617271711196
0.6638038053000697
0.650684108629893
0.5683759763550451
0.6794865542545176
0.5915405056947367
0.6091241896733696
0.5368735118888903
0.5368114735450421
0.5929954688628155
0.6190777470775877
0.6283477024757642
0.5350762321563373
0.5946934386535784
0.6516257985439029
0.5608588005181111
0.49737146406085925
0.6022483298256172
0.5132903479652352
0.43351637083278993
0.3585935989071359
0.5101886526017779
0.4933194972507361
0.3992691023629029
0.39795772785240274
0.28598576771248274
0.36033619709400766
0.2977074457069818
0.3373016230518748
0.16964250061796107
0.19384163317465608
0.2784939279517365
0.23157825440813223
0.17185730949899597
0.13314072613762223
0.21671728101409302
0.19603840006637366
0.015814234701959418
0.11015266834930736
0.04831600384074241
0.06007998494707789
-0.056902743507375515
-0.025598149028992878
-0.05689245116688703
-0.05522787645980928
-0.0886321244506926
-0.2097591423859104
-0.14078294632845678
-0.15525683030010695
-0.18792439290796936
-0.1642904984053612
-0.2166368418999817
-0.20883126208090458
-0.29694436290640625
-0.3020706832713339
-0.3864236009474523
-0.3853081166487875
-0.4712284825009752
-0.3439409497423124
-0.372627201443131
-0.47047583018942635
-0.4723212450695278
-0.5131556123793763
-0.586649065508828
-0.5808508014661394
-0.6906789944413545
-0.6905720421691945
-0.6517287593493333
-0.5922329404964719
-0.5725254325341135
-0.7436357332504642
-0.710132876711151
-0.8440625225032151
-0.7720942487789834
-0.7746366425334976
-0.7766482314820831
-0.7641178288263771
-0.7351701752015372
-0.7839300528034311
-0.7615161121092848
-0.7863157258790855
-0.807931144214928
-0.7402340486693195
-0.7745954650548275
-0.7871384206590328
-0.7970140649513787
-0.8627021990064303
-0.7412406177449941
-0.8392983688976648
-0.8305012857284426
-0.7433168163585133
-0.8070660091364277
-0.797592610164673
-0.773816398799836
-0.8463899209639738
-0.7988277240590415
-0.8708836993068395
-0.7840473200312215
-0.8722762348460185
-0.7894392071628044
-0.7840831753978246
-0.7715635654837428
-0.7735076707105393
-0.7978606015263758
-0.651315861546426
-0.655689461256983
-0.6583479833315875
-0.6096766232815183
-0.6623847926330482
-0.6904948915104181
-0.582377499530947
-0.602371678455002
-0.5469803214927483
-0.5004164176306436
-0.5724417176591585
-0.46855493494888795
-0.39163410106042656
-0.435499839196996
-0.40107758944783845
-0.4136214918139325
-0.38823036958400986
-0.3385371966620068
-0.3133815592043778
-0.17925846941560308
-0.2226681159737225
-0.15867511761042385
-0.18904731406904676
-0.17890906613898305
-0.11377457094764967
-0.06803958714488383
-0.013496305178063717
0.025011558194225215
0.09071601608415761
0.09661853502711737
0.12442080578704712
0.20186798318345633
0.21368498361077598
0.24640382698095
0.23108726559766227
0.2898106328509462
0.34568522088578296
0.37575487956056164
0.4397956872892061
0.4546331358123532
0.4244464912453935
0.4951252059002118
0.5438344090757878
0.6316928390101552
0.6483967322799681
0.6947902164525697
0.6987719915561345
0.7866175115551934
0.7149536717831536
0.7805964856600246
0.8505988094169333
0.8891365982928121
0.8919395902726304
0.8152806021568235
0.9452047280638411
1.0148615725430066
0.9682031778976892
0.9627093443647985
1.094294928329756
1.0999088927266025
1.0831102817790192
1.2108088012001392
1.1400214643676478
1.3348745872439258
1.284177189104828
1.3071500523331392
1.274626730760029
1.3038920553459892
1.2357515054147497
1.3907500222936138
1.2449394853117988
1.3317426751579393
1.409923645700884
1.482313691825538
1.3782787172880697
1.42874321812787
1.4320910972847214
1.4670461254727087
1.4497842655997757
1.5041736822800555
1.5131709693314535
1.5473019291380825
1.4770286460238742
1.5718006414080312
1.4677774416366223
1.490862350965173
1.4915035935610783
1.4901492634584388
1.461524366969262
1.5713789767482702
1.4385091712411866
1.4150587199507283
1.5967560984828137
1.473443955326632
1.3832766313356724
1.4107137325512769
1.3983025330742638
1.4808622031459187
1.4231166169069023
1.3686680967405602
1.4238351852931
1.4440924748355237
1.4139971670003462
1.3255087501503704
1.242284584570372
1.3359280287939137
1.2913515430625662
1.1927085443709529
1.1941814513866045
1.2368599246047578
1.1816189338456617
1.1449392750096024
1.1045853778655237
1.092628702550871
1.071936269556187
1.0583696911140335
1.0400588139924438
0.9804596920742591
0.8763572618930255
0.9731161145983103
0.8713065652274831
0.9121531454808536
0.7886327096063197
0.7521429996288355
0.7793820314625166
0.7686245244070334
0.6806506747374933
0.6016736377116552
0.5535716521602385
0.579356976804591
0.517947357828125
0.4202872065765115
0.4664679233548991
0.3489932896388211
0.4360569926230581
0.3830785857788689
0.4017386727985175
0.2852895062366395
0.31858329632351
0.21235881370577522
0.10078902712340546
0.10012921148167808
0.089689527536019
0.042203299182406756
0.06754431165323938
0.07124254183648877
0.0024073003492170696
-0.16273732554988452
-0.08173983284326927
-0.17923034483641648
-0.144443519829622
-0.145527631602056
-0.2053703892717637
-0.27318512792885835
-0.2257623304011312
-0.34767063837195433
-0.38612433062031826
-0.46159638120129126
-0.28599532268649563
-0.4674846930266753
-0.5054382486025161
-0.5306002299866166
-0.5167241308390834
-0.5269931224826285
-0.5404848504106776
-0.5648885546519924
-0.5042903652302406
-0.672037108033461
-0.6168293681810828
-0.582795858979144
-0.7054789003283727
-0.7072636211060481
-0.7299563345283687
-0.754223519074795
-0.7752549473665383
-0.7137675530694358
-0.7854053105512139
-0.7573679880818129
-0.7686270512316282
-0.7850914867235566
-0.7554101255656402
-0.7571168991391883
-0.7985475339398084
-0.8014189141777889
-0.7816639489039937
-0.9424675341398353
-0.7165691089455253
-0.875686130080451
-0.7521671705760397
-0.811142139594089
-0.8599546411819663
-0.8293658627635738
-0.8704953553970931
-0.8182172030033599
-0.7740110523732883
-0.7615732836293481
-0.8024729268249329
-0.8118369634630695
-0.7073119823781799
-0.7901030335046074
-0.7177393960818472
-0.7141099013608538
-0.798022285251142
-0.7020429596224158
-0.7130985581230528
-0.7028389008298197
-0.7092364078916518
-0.6758280322100401
-0.6627757266809763
-0.6275091679567814
-0.6888468500249817
-0.677714489224612
-0.4927267063429165
-0.4733922341645217
-0.5883808291637016
-0.5460393758003621
-0.46408973450161056
-0.4571284724212776
-0.3761357777736577
-0.3814291134073703
-0.3781073581680785
-0.42829911793109227
-0.30018966397010005
-0.34426003875314476
-0.18134585830759503
-0.25534376097397776
-0.16855400913182228
-0.1908758312604199
-0.10898767881424253
-0.155963774550591
-0.11623155001942276
-0.11173867246380935
-0.08633749816623212
0.001974104887344598
0.049960936701637704
0.0008921846177299669
0.0449646008255147
-0.030307453600361925
0.03981695899687509
0.09716115054164708
0.04485397211794011
0.2085491880981065
0.19460764680994758
0.21133149397071105
0.26257551623766545
0.22058115331407563
0.301428416960223
0.34143671103232887
0.31946513263941617
0.21256169146934872
0.4202088912063989
0.39186872998704186
0.39490674299036055
0.32023063903780824
0.40319773510187107
0.3874669240326519
0.4165804130480973
0.4325346691910934
0.456799495575162
0.5162005806848756
0.578486220330917
0.6150186107786402
0.604639482986605
0.5420162796551024
0.6867235597479902
0.5816359138124346
0.6987430944688093
0.5886328308604026
0.5607601508132096
0.5922533295390184
0.6372595428545654
0.6301204097735695
0.681747653819071
0.5562848681452028
0.6579430079881494
0.6941027184174132
0.6713096981178569
0.6032483751560829
0.5828572625511472
0.7465719309068146
0.6826060232389246
0.5429382683760929
0.5719451061164214
0.6301317533907005
0.58750831341949
0.5649181779933119
0.557083720236056
0.5557472117876819
0.5399293708642797
0.5766742624634439
0.5780807222719934
0.4803859230668561
0.43038945773731213
0.40866856310331007
0.5067448912563639
0.47551869113143425
0.37057114206934766
0.3660161196256881
0.3373068935030796
0.31777984012393934
0.27311250691477823
0.24399302017199517
0.23087764466767957
0.2393662597795578
0.2208663265455853
0.11378008692660974
0.1314334368652275
0.10969915093932234
0.06767712141093474
0.12578124054521359
0.13640203658617694
-0.05347289652780485
-0.02288555700075461
-0.0652695129000754
-0.09911756268699427
-0.15787453095144252
-0.18496578715939074
-0.18731794211492972
-0.2905029550698551
-0.2682130849801126
-0.3035811635691217
-0.297013741659138
-0.31740476978530197
-0.4618134626412729
-0.47305487093702747
-0.4748475866131092
-0.46604982097079123
-0.5248092131936805
-0.5819713701231354
-0.5115247837174339
-0.6767164571067905
-0.6322876819934353
-0.6695796364815776
-0.6951391774379879
-0.6984568542214797
-0.8891495283605623
-0.854735228379789
-0.8488764771222624
-0.8390335299466894
-0.8839350589676764
-0.9109087213201049
-1.027920256722768
-0.9115236217378583
-0.9946210567627102
-1.005368651145745
-1.065731943214689
-1.079876153389405
-1.141231832208223
-1.147261198862581
-1.178359447679381
-1.1606425418266215
-1.2199409709641384
-1.3230887441182113
-1.1746407854569725
-1.2375414447105473
-1.2999703549749178
-1.3650732721954932
-1.2960461056494017
-1.3422433361336001
-1.418982963767411
-1.3089745160981032
-1.3939132263448797
-1.4409284282230186
-1.3528062046765787
-1.3598150599383516
-1.5260788701588295
-1.4131984583214494
-1.3840791633927412
-1.4632516116410144
-1.4686857709545587
-1.3768614905239684
-1.4418989966099747
-1.4173031059568906
-1.5046563581229584
-1.3420044094217303
-1.4419444781932196
-1.428155176520035
-1.4127146509206991
-1.428487945145716
-1.3546317506630972
-1.4331042936181124
-1.4831998082060773
-1.3095900151345545
-1.3322290347810377
-1.336721993025282
-1.3656769546636691
-1.3251002423428169
-1.344272361969999
-1.2971939743797545
-1.2864525498402928
-1.1548627128622464
-1.2410601954653175
-1.1627145864635928
-1.1875385715681555
-1.1694184233359801
-1.0903755557728148
-1.1353291464607749
-1.0914516697105003
-1.0878940532231276
-1.0847403428892637
-0.9664504529241505
-0.9447177450847667
-1.0029669409568336
-0.933344721045348
-0.87923715934025
-0.8275009407572161
-0.8180431787370261
-0.8113783819981005
-0.7110435407083106
-0.726512651395481
-0.7641543954079046
-0.7633892733812478
-0.6003178476357881
-0.6322355642415687
-0.6177611986487705
-0.47100139059068713
-0.4728576286868887
-0.38040631475543163
-0.3696935349279853
-0.28922665784867174
-0.24774860812513078
-0.2538431765800756
-0.1281051445727323
-0.25021468342523884
-0.19276195485181788
-0.21191549774370672
-0.059233056036479326
-0.08592138935436411
0.06775472457412504
0.04666562149975173
0.11462835994683249
0.07526239216708186
0.12051182249252744
0.10206661288243302
0.20269670749582216
0.2802439023305383
0.29173438397957424
0.24963398772531592
0.30800881676476644
0.39351189050814167
0.41715852856535374
0.45926525942169
0.4754160733207517
0.41936131151480405
0.5291393401726509
0.5810502040624791
0.5435452057845145
0.6691088003287351
0.719987850261898
0.7306498799814183
0.6000737661127288
0.7831035640495823
0.7612154700562872
0.7364796137034064
0.8447313933279779
0.7432481139706348
0.8453185565503034
0.8725484111153833
0.9316497146218674
0.8337662371339616
0.928060356009686
1.0353204513681111
0.9311224141596155
1.0165143151803777
1.0979577549120036
0.9726714421232042
1.0306845919064156
1.0508980453569496
0.9497209769184427
1.0101378832534063
1.1340833711836968
1.0211647375721924
1.0832410197332853
1.0756479458286903
1.0922387241993337
1.0885041631026224
1.0706702905873346
1.1105433348708007
1.053829253195991
1.1666183755006223
1.0143392000957403
1.0469182013963958
1.0120963823583429
1.0815679271459937
1.011870050757949
1.1616919883499641
0.9844540582134469
0.9296983926125354
1.012154894939659
1.0148261482455323
0.9240401811985579
0.9361372041087069
0.9347191436550585
0.9225244465515503
0.9333173543626258
0.8928597601789233
0.8804373518547928
0.8814482636546823
0.8502602437056379
0.8132848587294086
0.857428525539426
0.7143807222002412
0.7146059869320392
0.6854927165421634
0.7657434643642862
0.674221436938843
0.7310858917005479
0.655145602841162
0.6672957577072608
0.5256747716960027
0.5376990324056734
0.4637536421434181
0.4841337207405538
0.5303769949315704
0.4818218075048994
0.4799688125556513
0.4372225489280962
0.386572033122372
0.3830460069861715
0.28379821251453885
0.3643976576329437
0.32297063551964955
0.17448921287678476
0.2353511823404365
0.16103870509988194
0.16566519958387355
0.07697532405878321
0.1485912900196752
0.0639152879734599
0.007272844885665319
-0.061085269904435635
0.07831969671642551
0.017091761573477263
-0.08141068467271945
-0.05262930046632163
-0.12361955839998945
-0.13118164487711792
-0.0993232965711294
-0.1617528803320985
-0.23785570056700345
-0.19436133153645382
-0.16867498715692125
-0.3240495686844694
-0.3230560696972454
-0.3227590476688114
-0.3675458433411309
-0.3227146002025014
-0.3271005124997506
-0.32192043940873905
-0.4018354948882341
-0.40145336126835524
-0.4961417185107593
-0.41124248902478816
-0.43106206230347627
-0.4729706629371803
-0.5248462713578448
-0.5470422226074017
-0.45045575777864505
-0.49658455913945343
-0.5520222923244352
-0.4923374941062634
-0.5235422426092081
-0.47032151362096536
-0.45601302134060345
-0.6076135403120352
-0.48834902920885964
-0.5241735405399611
-0.5756687521610766
-0.5198559981764637
-0.5965823410386513
-0.5387294624674275
-0.4961307722968446
-0.48317658543724956
-0.4857103209188111
-0.5402345251799257
-0.44471896223919255
-0.5286005647723028
-0.49225600268941117
-0.4062169989951783
-0.3890220737189686
-0.37296574597252136
-0.36145361635728257
-0.34330881834454857
-0.33310907328509226
-0.34374971917512115
-0.33641864136982885
-0.30376079515311416
-0.2823919540033146
-0.31891168384172
-0.2182408702319372
-0.18040484749322577
-0.259849983782486
-0.1445997739183424
-0.14271315288079342
-0.13269277352513478
-0.2076986999992767
-0.04451566688441469
-0.06929295109048227
0.062019356408059695
0.023650629482390773
0.014086969866902239
0.08701781031639014
0.07959132534542447
0.06308950268111546
0.15442020199548764
0.2020321389062922
0.2366021830413121
0.2250979389554615
0.3404275475000393
0.21636038007040292
0.3201634751017358
0.32502107521634055
0.4536526691116843
0.3630131928101028
0.3615753880113281
0.5000088968754695
0.46368772485916054
0.5602583062173608
0.6686802935185399
0.6284479882820595
0.6115299208249059
0.656556134625833
0.6530449412620244
0.6469343136011253
0.7763018248549127
0.8923408852838478
0.7383258343252376
0.8864089509127284
0.8169223512178442
0.8431905782820177
0.9272489810001362
1.0062254518345972
0.9830686881179923
1.0366163613375698
0.9912210689557763
0.9758511540832905
1.0554600584291054
1.0283823635732612
1.0863552672080004
1.1193838983914084
1.1459501313343659
1.1500148750854378
1.1761429531224745
1.2077651002159162
1.183612413923322
1.1739293080236894
1.1725160080378616
1.2620005436064348
1.2827948723097984
1.238094744655769
1.1430625885810242
1.3083839327114806
1.3269226998862904
1.220529559473358
1.2183327841548717
1.2926264358929684
1.3075923087350756
1.4062912263129317
1.212087552762902
1.3062131411506392
1.3196020964527888
1.3446095962263431
1.2612792249573697
1.3210081742401596
1.2517470423966002
1.2403321435092887
1.2858754100323897
1.258162883515604
1.397962863504683
1.2165976420191749
1.2263680023891965
1.242630507537486
1.2086787173237719
1.16139913741123
1.1982630327842223
1.0292271054085411
1.1356239873811595
1.0725751374949695
1.152746451634721
1.1132395609184706
1.0325773366918336
0.9999976726093268
0.951971784177825
1.060661481512072
0.9459570237085918
0.8726954116744667
0.9316972452184604
0.8867071738935178
0.8295177763501145
0.8153199112445639
0.7341091819617298
0.7303059313189826
0.7027795577035475
0.7056781496974883
0.6888437998874326
0.6049791907509564
0.4949133599626275
0.48778124929071803
0.5254075211756464
0.39359386717701117
0.3823396835365117
0.4192057566650805
0.2963107498699995
0.23221952656040584
0.19781276833158487
0.28026869499691515
0.13518453390959997
0.1679887343395654
0.059828849593762785
0.009322597024381866
-0.06233567970382185
0.14864476847514355
-0.04791109509544361
-0.11668438007805929
-0.1675832017383449
-0.17032944123978358
-0.2703511154158926
-0.24417572500085916
-0.30253650715490593
-0.39316435806034905
-0.41452653466397765
-0.35967626955884846
-0.4999033305722569
-0.4654700925120969
-0.5002726274563097
-0.5227817437849545
-0.6159882504264085
-0.6566990481044094
-0.7140487130322718
-0.6437226408009369
-0.6747285035841244
-0.7555235389196981
-0.7655110309514157
-0.6760872165068714
-0.8093800234102654
-0.9122372299580945
-0.859192885976592
-0.9740480953911589
-0.8779738508733343
-1.0558630916182652
-1.0195738101026914
-0.9606358614488075
-1.1203890782256394
-1.111862891868774
-1.112939872672092
-1.129149349719071
-1.047417168016471
-1.2017489224219249
-1.1328379222577882
-1.202377905694876
-1.2252431112796396
-1.1926477742587556
-1.1030966876944401
-1.2686359389201587
-1.3176970506812025
-1.2534824831492941
-1.2904673939779425
-1.3062296471402155
-1.3598136547597839
-1.3362178890993146
-1.1928809549138017
-1.2741146327879007
-1.2826901764163656
-1.295462697972585
-1.2568116773350726
-1.2407021881429952
-1.2240822499773354
-1.3065978584828308
-1.2699225309121625
-1.2164960529075688
-1.224567854392168
-1.299053083718283
-1.3000997459681152
-1.2246160153171957
-1.1979142524862143
-1.2389735141018139
-1.1236593109550663
-1.2000225297951372
-1.179002666840108
-1.1314054154202333
-1.1889254861590126
-1.2655862446845925
-1.1227736309133987
-1.1898150639215113
-1.0629659958675972
-1.1986731412532021
-1.0922423408585413
-1.02410190633645
-0.9971183199174869
-0.894442478754724
-0.9361459896436014
-0.994578891083403
-0.8582059750428602
-0.9221310810017648
-0.8224191799808973
-0.8011233832649989
-0.7935976863922396
-0.7559863765167151
-0.8023635076232178
-0.7278260567074284
-0.6919273259327591
-0.6416694273945315
-0.6471578518046608
-0.5643869276250154
-0.6450128446530122
-0.5677516975103455
-0.5241628563105806
-0.5095214999241954
-0.4123414221827748
-0.28092461612573844
-0.3670068836683469
-0.39262498741182816
-0.31917614258582283
-0.2745936867200277
-0.24611555260246723
-0.22906453261097692
-0.26017478132909555
-0.20745854507339564
-0.12194364178221515
-0.15572548902632916
-0.05694168024021677
-0.04787553295084782
-0.0174159430780842
0.029282845075178664
-0.06123092484879317
0.0838429763529842
0.13076781239422353
0.07610766935167153
0.17198657180705632
0.21298429419477227
0.21499219465888073
0.2354819380782349
0.2225080484728296
0.2199853757975513
0.29655860594000893
0.3369451069237125
0.2822472495075189
0.29085672587987266
0.39649186711469786
0.48181337241392685
0.31601119828645974
0.4353939477810802
0.3178667956059645
0.3537582321458702
0.4022302998486634
0.5151444668103264
0.5072388686565588
0.3897164198831418
0.4088469923652184
0.5190213180954345
0.4794451082222588
0.5046803656780923
0.5433583632537052
0.5557892491522515
0.5334504224517427
0.5013887701953609
0.5365464364672886
0.485028621700012
0.5309714700794848
0.4857388297067373
0.48945878987044245
0.49968274665284246
0.5116610310509926
0.5333904341692789
0.5201514305827546
0.37922144418035164
0.5766286026526584
0.41098552676764966
0.43545626655302794
0.4304482078215439
0.4438264253038884
0.40625596680111187
0.459237212503296
0.38707960500328875
0.39655414743821515
0.3874320114074709
0.38926721709923706
0.3761591050291188
0.29525282387956064
0.28582416226276974
0.16721611163834954
0.13632528523070647
0.21510370150974295
0.1515158655050628
0.14993145431211313
0.21934971484644683
0.11030731331725796
0.0583024228434692
0.04767533670405874
0.04371317069055998
0.04799651752363725
-0.008219024433481938
-0.02143875916241516
-0.08103049495018794
-0.0630157380297054
-0.19605347309500895
-0.07011209122477537
-0.21444399360128652
-0.10498675244564662
-0.23235054697574498
-0.1807148401759904
-0.2501090562769455
-0.23518764910983087
-0.3037996881040493
-0.43165472010402167
-0.42018724578002925
-0.339312233543204
-0.4313287581827844
-0.437094236292412
-0.5454932213948633
-0.6325245074598055
-0.594867244791034
-0.5790528407964693
-0.6185422226843146
-0.6801297995737339
-0.6479966322947865
-0.7101143981049343
-0.6419222307442509
-0.6891867346304139
-0.8439533644524759
-0.7517232564640697
-0.8270098622226442
-0.7908301233507862
-0.8783709802813625
-0.8283498165110263
-0.8927066879736894
-0.8889448336565053
-0.8758717489488622
-0.9279246075086948
-0.9453925922313862
-0.9589034490997478
-0.9387035594167998
-0.964531067550676
-1.0196999414292824
-1.0711546377295538
-0.9425399713003567
-1.0185814314010309
-1.0460317874465979
-1.0019980404181892
-1.0686630503446333
-1.0063221478037212
-1.060749121203335
-1.0016375711235321
-1.1582204667407636
-1.049293923981608
-1.1902743716475266
-1.1294043037485253
-1.136228555901975
-1.0830797777051508
-1.0577171862176473
-1.2171292823112925
-1.114546373172634
-1.0309705373440345
-1.0440743439390594
-1.0143015810481057
-1.0884830806845955
-0.997498684519032
-0.98734475513954
-1.0038826167801778
-1.0025010195622384
-1.001277872993256
-0.9872272331081631
-0.9227012285390307
-0.8834721994236955
-0.902042481912601
-0.7896400545183259
-0.8452306472924346
-0.8339944908542715
-0.8592597917765936
-0.8241033495566473
-0.8587197330367353
-0.788210032284692
-0.7474632136249586
-0.717348845944777
-0.6225543749719611
-0.5828084319257242
-0.5860333157438748
-0.5296426199279124
-0.5782415854933267
-0.5182106656298846
-0.46270685685957696
-0.4577024449244519
-0.3959503288572414
-0.35583258077226637
-0.3888683888900335
-0.3000984556432001
-0.18788754717456443
-0.19453523525673724
-0.2143482305128369
-0.2056372074640902
-0.13250239354899895
-0.058064092612090376
-0.026298645149508908
0.027408565393708055
0.11721126370579282
0.08465131706516164
0.0886970194396887
0.20511318743326226
0.13696980829372196
0.15041824562284206
0.24515368512953245
0.31271923817190134
0.3333001399498551
0.37906568926014544
0.4122741720368962
0.5796211585396899
0.5398318591347531
0.5474483616830186
0.6278107074394674
0.5400459591251741
0.6974541506861534
0.6450550745817828
0.7125080074750961
0.6906195955258837
0.8584329053594785
0.8414960280727342
0.8237900524444497
0.8326768432885415
0.9178671101645544
0.9077423865050035
1.0629502227013061
0.9811347528540283
1.022906469936054
1.0293150485720726
1.0346356740183684
1.0885876860114914
1.038054760219608
1.2370390468999455
1.1190313643073098
1.199715136310684
1.2476784094542317
1.302691469039924
1.2599628114924257
1.3540890501934741
1.3642426698111778
1.3369785722496867
1.3306731522789328
1.3561761456657384
1.2860130563135919
1.2593417420443018
1.3493605709057834
1.289722779125658
1.3957839241722296
1.4262014621823393
1.3231666882806792
1.5348285928928356
1.40285673348298
1.4327905734145383
1.4333264388349187
1.5064090351966999
1.4149488969289463
1.4724167235328427
1.421762151678303
1.3528980919375608
1.439425464986607
1.4990735904049417
1.4208274647192898
1.478646399031024
1.3412115609870399
1.3941748587302556
1.4251415736184507
1.3542132428665232
1.458604768840444
1.2876801577593402
1.2857761702673531
1.2595506032742945
1.2712555440078028
1.348982853268655
1.174267849758979
1.277902547293025
1.2550777907799002
1.2166002501330728
1.2117386504463974
1.1250389699567716
1.199300897687297
1.0726189486038
0.9762479026901856
1.0233278102251995
1.0662213142063959
1.0437228988342002
0.9148024170092777
0.9383650634488384
0.8852254843380493
0.8775128435528586
0.8615111751518587
0.7720031306453037
0.8745592718610291
0.7637669536505582
0.797193253713787
0.8157542216721971
0.6251985514262404
0.6229019550806748
0.6458877825603354
0.5529445136968344
0.5962922728377256
0.598078242951802
0.3295894665400477
0.44524816793634825
0.5112147407680533
0.30184278077596566
0.3079449532633684
0.27175055085417515
0.1895700210741848
0.18072632358371396
0.21903212786623158
0.10593484645043239
0.08017447670015838
0.13312903357714084
0.08494031571444188
0.05330635181635377
0.07370396642998606
-0.02840863276035408
-0.02585534854434937
-0.10893038215831521
-0.05163117551897118
-0.046772659387528226
-0.15168064362111405
-0.23007684242463003
-0.30230198114188467
-0.2671661586262156
-0.20914770912500863
-0.25561091025620075
-0.338688187961457
-0.32545454140278735
-0.2623743339557623
-0.30355418882284085
-0.4290972361566347
-0.43723700558708034
-0.4813440039643414
-0.4525100955877694
-0.4736920930694419
-0.47194256303962195
-0.45720744463811025
-0.4747315187827048
-0.5143759221639282
-0.5423312143708139
-0.5839660229752607
-0.5409767762169558
-0.579041367857336
-0.6012242779455119
-0.5469207630996118
-0.5714779628441673
-0.6005440088548828
-0.6954279825657043
-0.5709885864161096
-0.7714087762658137
-0.6080304463391346
-0.6586185445180994
-0.6643209517373536
-0.6820588798279226
-0.6213958993191622
-0.689901737325086
-0.474477585356804
-0.644321406148569
-0.600980600786752
-0.5877847706229749
-0.6230106876850646
-0.5424666566375357
-0.5473429721156425
-0.6509263522223835
-0.4678837812284482
-0.5833503496616617
-0.5745216347752375
-0.526518498538944
-0.5865646430466867
-0.5093749142083316
-0.434059930297638
-0.5173149503305
-0.49232017868535843
-0.42515393717291716
-0.4860596254696265
-0.41422589484052436
-0.3554383283381504
-0.2898476349528301
-0.34669279224060606
-0.26607166129002807
-0.24201454348000243
-0.2969691996890018
-0.25553780566587764
-0.19834100646664773
-0.15115266240072056
-0.16436213542160338
-0.2042069974583827
-0.02934647883744168
-0.13027403935848597
-0.08519246323267063
-0.10530370824388997
0.009313217184309792
0.1413355562504104
0.08872449397386492
0.10189175308456365
0.1558266249917725
0.22880692513861228
0.16239886933887038
0.219365930006623
0.11574990586220595
0.32022978268369784
0.30582010385471486
0.21160635878700457
0.26553316730319043
0.3457638809521028
0.391263725400347
0.3593690566181295
0.3988898732742915
0.5090003985844699
0.4375212613294969
0.5528494054891593
0.5260848113414228
0.5995893420253519
0.5073866711157891
0.5435785434781818
0.6131546948198862
0.582382869920775
0.6832696848250307
0.6703951604650135
0.6860951142910527
0.6697757172619179
0.6188184886653294
0.7968202090891234
0.7913610551048232
0.74878333825868
0.7934596667864136
0.7088902778900653
0.8258376437971646
0.7942259014824194
0.8328971265886479
0.7585711568322315
0.8482778488119084
0.8664549536921587
0.8324004746273955
0.7893397475493213
0.8750024714505908
0.86844836962215
0.8372257909954056
0.908959472427727
0.8477410606963086
0.7949229275042613
0.7748036264338845
0.9250013269433385
0.8913791904335138
0.845894108057412
0.8222636542149312
0.8090161105177728
0.7482780014879262
0.7779581818370579
0.7442227445808939
0.7841140463912218
0.7985058709872498
0.7443922199805615
0.7047312055774008
0.6611158755707643
0.6753466003197625
0.6706153378240094
0.6191735842684593
0.6573096803547344
0.6049882251147224
0.5473544643769139
0.5671664590699309
0.5715873391497683
0.5513452323290385
0.5916637416732882
0.4692949288549065
0.4430451200483402
0.3908177039116004
0.4389330070723989
0.4060020972952528
0.3298630455771385
0.29971964465644746
0.3029210408602414
0.1929512221423102
0.19073321745751742
0.12501770593618966
0.11518642114927347
0.02239796037907417
0.09747266352557755
-0.028241941745683036
-0.06464884897877117
-0.021630472411021995
-0.040704835505953746
-0.1853124813698954
-0.08437341152178676
-0.19227696369604447
-0.2605034194449237
-0.1725784393352732
-0.1850193874554672
-0.27723734251882687
-0.27267086151169373
-0.35997958288700904
-0.5232550415132629
-0.4929969779973934
-0.48838731171499933
-0.44148437765683796
-0.553580873658438
-0.6398508294565756
-0.7051775647946139
-0.6887174657836146
-0.7028559973958024
-0.8350163435398764
-0.6889676465989135
-0.8213695037255172
-0.8609319877354089
-0.9675397979015471
-0.8635799950542177
-0.9038474951785486
-0.9474342896744696
-1.034214802710564
-0.9243754159946167
-1.0721995325364255
-1.1215571758616671
-1.1049514255347384
-1.0890483599194458
-1.1448563693837988
-1.2267399069251845
-1.2516485385263707
-1.1619399434476108
-1.2665075121257743
-1.3563150160581938
-1.317308221021867
-1.2803242625823457
-1.3120749165397576
-1.288157573935752
-1.3763609799484529
-1.323690782544973
-1.4355165887545476
-1.4301698746962008
-1.424569615286424
-1.4394009909128218
-1.3649284849620846
-1.449319779060597
-1.3962828734190067
-1.557181020098276
-1.4793675240034443
-1.505830151642993
-1.5166402049142866
-1.4204152937901475
-1.5624490885082964
-1.5059298580650824
-1.544171726614095
-1.5980155014712363
-1.5449609305692447
-1.5487117928902874
-1.5100306818481581
-1.4475545332826194
-1.478864469592247
-1.4716467180891077
-1.3758258100750416
-1.3572398827442134
-1.5245097338383304
-1.376537681790723
-1.3740567857196038
-1.358230259562047
-1.371230019122587
-1.4028934673985833
-1.3957322808647492
-1.3528109697213109
-1.2141955372681963
-1.2870187284590409
-1.3394924144878477
-1.2017840057939795
-1.2784812906336163
-1.2533317343349626
-1.1542244516715208
-1.0563472657237047
-1.120862897043091
-0.9947676542726621
-1.1162773920074158
-1.0058141425875746
-0.9059006217241139
-0.9304948647495282
-0.9635058222019495
-1.0344306050343544
-0.9257786071172837
-0.8317276618577725
-0.7815253067360565
-0.687938598038793
-0.8038450205245213
-0.7637825206495282
-0.7437958807894651
-0.648624696862805
-0.6149160522364698
-0.5212630075838134
-0.5267923972752393
-0.41995016772094496
-0.44679971446565164
-0.3581734625821738
-0.41641174040267187
-0.35874290292299704
-0.3631051245849487
-0.2419925152759637
-0.246103733936475
-0.09676926477881885
-0.15594607197662702
-0.08958351942640158
-0.06504028374638607
-0.14038865944739326
0.002185262712858788
0.014093348083289783
0.11527298917978396
0.1330032857664844
0.019442372216480028
0.0912303396748682
0.20096379550769716
0.21304735348417
0.29152093354944764
0.2799681930484125
0.29749982121653135
0.2700016747614538
0.43967106849428356
0.35919994886676393
0.417669962283784
0.3986731070873661
0.5428471305883632
0.5035495299016501
0.5755143506515079
0.6140398657746364
0.5772703104141893
0.6258075964468117
0.6524347561242867
0.7428797824977199
0.7097650962074687
0.6442925776776669
0.6974516080778898
0.7005927596237809
0.708577046473326
0.7820739264905476
0.7337795261960196
0.7465272050096436
0.801238722624351
0.9290954229281885
0.7995123477074314
0.8086009580767334
0.846281615178072
0.8051851802203138
0.7839292534064033
0.8512224743314047
0.7907418970513768
0.7954860685707399
0.7972332705371384
0.8761039796996873
0.9018894233542052
0.7870243348210039
0.7682183580002202
0.8441453771460716
0.8548886229164356
0.8224542548959987
0.8205644243637829
0.7720338239840945
0.807412086947394
0.8301684210783711
0.8336550130496975
0.7993986331508544
0.8454032805086378
0.8183864022286186
0.7498923433575477
0.7140135225761801
0.6333383520664728
0.6055133391922308
0.725844387040477
0.627978405138301
0.6032312912698202
0.6370854534122954
0.6074232899378539
0.4977811238310316
0.42457339932455074
0.5366001434522276
0.48234480555528003
0.5646847801066767
0.4546571511980223
0.3744825291738052
0.3687292545394341
0.4219890338285114
0.4728943859209074
0.35572019409787453
0.297418078666318
0.24608811831807237
0.21015862820126716
0.20647850318228966
0.20479303129307636
0.2527955183655418
0.09951549629860773
0.1495106971693737
0.0809838104931122
0.08929679825682968
0.003846965568351006
0.054261849703366005
-0.04483410798269666
0.010281599393667275
-0.04135657205381746
-0.11623832968916381
-0.0722950525852776
-0.17336995996318225
-0.0554862735726083
-0.15967370758929544
-0.2756131383856588
-0.27211085774881444
-0.2859365851343693
-0.20175909327372432
-0.327172518998871
-0.37062633424008834
-0.44315290381391576
-0.38667630591229724
-0.4015127414415018
-0.49596159421219277
-0.4112279729862887
-0.5401329765997642
-0.427721744612825
-0.4456582497870941
-0.47736702584158514
-0.484453566721221
-0.5239547161369247
-0.4778702049642986
-0.4925409613729607
-0.5194221602555491
-0.515706688425493
-0.6367486541851941
-0.5905563075039625
-0.6615822439592438
-0.5902103236399989
-0.6345050415047053
-0.650189238892008
-0.5563591269853287
-0.6142777444622776
-0.7206154958979203
-0.6939508266899937
-0.7033461570209694
-0.6304832568079693
-0.6712779527861051
-0.5667858178462423
-0.6205179574861018
-0.6361840100171059
-0.5346289029538949
-0.6280996746716949
-0.609811622400696
-0.5982892704287219
-0.5862924230266384
-0.5611543389938081
-0.5613190980830574
-0.5567301461524475
-0.4638387145250164
-0.48762801835313146
-0.5444320868543909
-0.5472311870728734
-0.5354145763364552
-0.48922527376466846
-0.4349582570949207
-0.4718283943351312
-0.46498272662941215
-0.4593194885592022
-0.40117686780220657
-0.3170233754800749
-0.33925179582783005
-0.2609067125543811
-0.2609992983994961
-0.25021186540335605
-0.1606037896442904
-0.1619007949811629
-0.1926846104021883
-0.10747078209804323
-0.05981578943839859
-0.08749828526301866
0.051164244304365225
0.1313752489286778
0.0021222904292244604
0.08887232051328559
0.1259067852194803
0.14891438437196627
0.09520691014475578
0.20169248019941236
0.19899521199013517
0.2382604105506393
0.3762166947535125
0.29977988142958834
0.3097911815621716
0.38710742667660347
0.37375082513822167
0.4289009459482068
0.456834222316928
0.5777452771054793
0.5526869651974929
0.5520915773157135
0.600131666559137
0.7203454383256324
0.7336611189438801
0.7205732020288249
0.6997201827141583
0.7985592771159408
0.7368922471769564
0.8207545803801507
0.873478463515172
0.8817133033356185
0.9326500416353851
0.9945434952747632
0.9205844808861973
1.100821522355974
1.1391405205741874
1.1208939131242865
1.0665425674585916
1.0514742072019703
1.2377772402959537
1.2119837239839315
1.1547927794868396
1.227173261496546
1.202948367564919
1.28543126393143
1.2814348806477718
1.2220683690583276
1.340721337175789
1.2420595079441554
1.3536563933567667
1.4350359439275182
1.378106281600954
1.3390023471117727
1.4430785436649003
1.4763074915421313
1.3981199812132998
1.4373076000622869
1.4824940434429505
1.5055095344639329
1.387164408114747
1.427344194259848
1.4288202671283436
1.459181509179303
1.464061716757311
1.539356241306627
1.447625432849917
1.4076562711893537
1.319010976824918
1.4141831781519785
1.3364546837409024
1.397178925468549
1.395638095190929
1.3680837902893133
1.2640165253966513
1.3719303274169707
1.4271820076472999
1.3220145673024934
1.2814043777048605
1.3992075642043087
1.2594553813779628
1.251030429350816
1.2924028952461541
1.2144260269816654
1.2262143278500375
1.1137672777255998
1.125979268208214
1.1845083563602095
1.047499676111241
1.1160047402073152
1.0052473256590102
1.0166660340887423
1.001010950406085
0.9552874388945647
0.9741996838608802
0.9702587631900085
0.9144148892400721
0.9111823634506179
0.8144580211298789
0.7363171528394614
0.7243499582047163
0.7535251905376147
0.6666531266305795
0.7461800568518655
0.5522657260393963
0.5612753671327626
0.5499665765614361
0.5265961402378345
0.4330861364812386
0.4665379452537716
0.38414160427445365
0.45999956797846775
0.3600832584691062
0.3703729846026318
0.24925834094536903
0.10236581192116222
0.151083552810465
0.1213105291546175
0.1096994189356271
0.020261846019544727
0.026201435204837975
-0.03480561323536676
-0.09720936273988096
-0.10837847222588641
-0.1198329408169984
-0.1103945995114871
-0.28629556855148897
-0.26329748461479463
-0.27558475330219745
-0.3752426109571138
-0.338883425188964
-0.36940890768990814
-0.47092529539008954
-0.4127989064588803
-0.4176714411871594
-0.6083321884759688
-0.5666770546643087
-0.5402346825380091
-0.6170874296957108
-0.5764078220075771
-0.6742789848879907
-0.6729897602762579
-0.753338075200509
-0.6228159387039954
-0.672776194710835
-0.7654583610196161
-0.7649623393390458
-0.8073328703624802
-0.8322064499013845
-0.9263670487539282
-0.9137389517014242
-0.9891971508286271
-0.9276242402062702
-0.893152406713281
-1.0071807972701776
-1.0488831860187726
-0.9889678145064982
-0.9398227747802477
-0.9460149643706607
-1.014967251395074
-0.9701005939639268
-1.0868494586528423
-1.0516116457481566
-1.0999277416595934
-1.026284607703021
-1.084303650111852
-1.0769411566918912
-1.0959291978492
-1.1583162327024332
-1.112845355578555
-1.0935353473747365
-1.0267650755086777
-1.1329734270520113
-1.0465374772963694
-1.0522105338141055
-1.0878966955189056
-1.0837227980722561
-0.9715312487329559
-1.0471739989611617
-1.0591348553502578
-0.9442310786817436
-1.0154504243385076
-0.9683968051818208
-0.9664589486608451
-1.025429684821258
-0.9332527061621902
-0.9704946931254484
-0.8452477325147972
-0.9057483647586275
-0.8547149358466462
-0.8953254467163074
-0.8654575935523897
-0.7691457886846095
-0.8287670794480934
-0.8441406010883712
-0.8097880088805216
-0.6087251897314829
-0.649107569338824
-0.5803775602166759
-0.5807639853011237
-0.42513604440868724
-0.6112661528099462
-0.56666471247501
-0.5011875041857529
-0.5034114535864572
-0.5674284549902381
-0.37365569021214495
-0.4152530957131615
-0.3799725193243311
-0.4022833750617436
-0.2532586205613764
-0.25118703246898777
-0.3016846847011372
-0.2795762074132825
-0.2686407606756479
-0.1408897449965828
-0.20157260454818526
-0.14858932465221877
-0.1294037598165565
-0.06653576975473986
-0.057742814273712056
-0.12041449990112124
-0.037807951147640795
0.050873504605904306
0.07542580903927948
0.03982605544660148
0.1294956406229635
-0.014307689001309326
0.10738117214983862
0.14413854796979206
0.17237129083697444
0.23625380617305675
0.27467707254925683
0.19545090642401433
0.3129698404377244
0.29854399208851673
0.3327473397022663
0.31179470304690615
0.3667489319767207
0.4016950203286818
0.35309827286483936
0.4184157121564165
0.34326071449421064
0.4934820744052679
0.31435423682369845
0.4914796511140308
0.516520730687258
0.5747350093111122
0.48323070460184564
0.41304164295161316
0.45899502578965845
0.5890668395229178
0.5073133777295158
0.5386749479083371
0.527479372472961
0.5010517108877649
0.5935804369058462
0.5039883173477044
0.5117320738943889
0.5119551070562814
0.532338110645754
0.48623677362693785
0.4752368586402448
0.6022848415955581
0.5669030906828997
0.4591655613941373
0.44302111342436706
0.49776406053025607
0.5199461418390162
0.5040272434852346
0.4244025077555809
0.4322153263326315
0.4031728670698768
0.42669081972343725
0.3567921930003099
0.40113435533030734
0.33146240533547655
0.3055135607182605
0.3625611749767734
0.20170693310386875
0.29270872584589946
0.2394807406700995
0.2708482222382992
0.18058431786816628
0.14814925961469777
0.18128778558942565
0.09102702851561914
0.1470780628746896
0.106050983870095
0.09617968938970056
0.04538405672595523
0.03907319497313666
-0.07857208088797968
-0.08286105753207161
-0.15091621380863204
-0.12278708344513094
-0.09716031662015873
-0.19924971166595198
-0.14841202186404207
-0.1037159718972685
-0.2942330721355057
-0.28948787891817424
-0.3679418527645474
-0.3258098285604867
-0.4207603014304544
-0.4341218106638447
-0.5055837140953366
-0.5348262361999067
-0.49884308070549194
-0.4779666982077133
-0.5565841407334547
-0.5863643383197404
-0.6558762160412251
-0.6728137500855612
-0.6504038830392269
-0.711753794695915
-0.7282944593657354
-0.7523997704725914
-0.8355470208178936
-0.8021826683146204
-0.7919816898836028
-0.975207472490229
-0.991286673147348
-0.9165797821988794
-1.0471465499882415
-1.021144048532445
-1.0283101723525585
-0.9970171981860565
-1.0194688450029277
-1.0932566036797344
-1.1395403736049632
-1.165193852661364
-1.0551186369301289
-1.1709729517535528
-1.1059242540863574
-1.150838739228046
-1.1847552409086524
-1.2125538682879153
-1.1900274595796967
-1.306955580446187
-1.197274248340653
-1.3249791764147714
-1.180689103163561
-1.3583480859831456
-1.2884504849415197
-1.3495365428432298
-1.3990867719336233
-1.1829850700899347
-1.3179915446157056
-1.3405063170293874
-1.2176750116849548
-1.3523847989012892
-1.328480846683743
-1.1293544822611707
-1.325803516339698
-1.2536411867969957
-1.2361662996361074
-1.2900219631163887
-1.2575698177992165
-1.3568490348020021
-1.2519445207356266
-1.2555396159404733
-1.3431900198875553
-1.1929776578950917
-1.2482675822548568
-1.2284764696224575
-1.1686026080022132
-1.1622955605830492
-1.0365001949660568
-0.9915992531138133
-1.1168648017873113
-1.065989407217631
-1.043497812143633
-1.0097192799342964
-1.032572850401211
-1.005397292812683
-0.9828236223339905
-0.7702255351943461
-0.896403651700629
-0.8485032835592441
-0.8678525704869899
-0.8506597376011437
-0.7022425069121316
-0.7403418859143432
-0.7070350351300579
-0.6818091918899143
-0.6688470963442007
-0.5931589493422881
-0.644994306168198
-0.537449836888843
-0.46136097620226163
-0.3954586139141788
-0.49306613589047166
-0.3902811775318489
-0.3729114508833431
-0.2184244125195678
-0.20131094297047905
-0.15840264798008621
-0.2321526922268119
-0.09628858346310387
-0.1333731321588017
-0.03751410104604405
-0.006648525938974581
-0.06558945087947435
-0.026063950274224236
0.1597832923688114
0.17275284793883564
0.1535833440428737
0.19221618302773932
0.22636759719622093
0.25044505524331073
0.31268257673648
0.36411641620700164
0.35155605052532213
0.376080934829838
0.5970300508392152
0.44500203566036745
0.5541590167485503
0.6629988587806912
0.5324779575819634
0.6589394625365291
0.6756723596965695
0.6650004764748506
0.8253713143764906
0.7272853046097811
0.7589667046186563
0.8518773653429773
0.7994314774808663
0.989314077569799
0.9265565704902016
0.9573564649517255
0.988660517840336
1.0003676330336235
1.0250156835974744
1.0252414787792459
1.1141632650235063
1.098606248831067
1.194996990240688
1.0696119093992207
1.139542872981814
1.2076348731270456
1.206706091267562
1.2248603700632532
1.2232937069555436
1.160935080965343
1.2188114099577132
1.2386097666874945
1.2433244478083583
1.3131209562861306
1.3424261533402162
1.3244360456308601
1.3157108166814493
1.3610328087237924
1.2055281120963381
1.275363662453739
1.3791392294526807
1.2831959843810328
1.3859359450200082
1.3065987504176775
1.3334913575321499
1.2788901019205854
1.3481985743496003
1.2836396432836452
1.2352318799046993
1.248099726243406
1.329153865727104
1.2153149681007664
1.2484243118834404
1.2387824272223054
1.1939617591140683
1.250947978481122
1.1535826216276617
1.0988525965866587
1.185877450380595
1.1134549241268084
0.9745393699328844
1.0525794409657698
1.1102255899110516
1.0737277702294705
1.0170306619341019
0.9123000202941532
0.9832583628680436
0.9820287917668823
0.8572495856497215
0.8361121816426222
0.8680251628216216
0.8103223689674197
0.8591923504314607
0.8012770130706588
0.7548081790622289
0.6819921089182389
0.6980989821383407
0.6842527008064262
0.5516474980797591
0.6083622749481091
0.5145395963153271
0.5553398459965547
0.5544299007509859
0.5277786980919847
0.4690358155219161
0.4722519587849572
0.32518821451435953
0.48143945439650565
0.367216045792961
0.3410550114294114
0.29254710336319223
0.23023441604404815
0.1361956112668447
0.20917316614979833
0.2362175398561204
0.1872212662784624
0.1212746770475051
0.07593731210838621
-0.028901268645738443
0.0226675444619865
0.01592248382263098
0.0767341829921629
-0.023058418912128113
-0.1614998949415975
-0.07962601423241375
-0.08661962778045283
-0.16651668313278004
-0.19330530430781265
-0.20258410894555598
-0.26338898576431746
-0.31114862645627384
-0.2594112235516599
-0.3238464160268963
-0.34489244881476394
-0.2794451223103501
-0.32026571318701735
-0.37460095641714325
-0.4608217634548274
-0.4007991871380208
-0.3546867008420442
-0.41876744271711436
-0.49122388471781087
-0.4987020296465844
-0.45850305950560516
-0.47768658515051526
-0.4933434249642473
-0.4637383175804922
-0.4502271275917051
-0.43648426696644926
-0.5435389978701044
-0.5253063926074781
-0.6536756745972031
-0.5187067555682733
-0.5269197148885649
-0.4715706038617777
-0.46926581001740514
-0.5413868513597444
-0.4830449091468981
-0.3921791616569844
-0.5183622965359791
-0.4855510228247552
-0.4767844672875239
-0.5033939123490971
-0.5069671698675942
-0.46440746503691294
-0.42162216844547085
-0.504177343627387
-0.3983871390673255
-0.46520566729172674
-0.4446964197932628
-0.35944848115550593
-0.28976856678907087
-0.41000950857216617
-0.3120138151552852
-0.30974411251628553
-0.2670733145370485
-0.2760260389099055
-0.28642108670988775
-0.3423099624505102
-0.1366156870905815
-0.11983842336837948
-0.22770534835729253
-0.03481041392916635
-0.13654147398647576
-0.16718278862796118
-0.053085970662180994
-0.06150278223948552
-0.0858168910145807
-0.01815622645375953
0.045168309344933925
0.05056867866616627
0.08276197135678245
0.0830917533274745
0.15486527759671886
0.12304351451648651
0.16747362513481887
0.22794521170282772
0.24667438574423978
0.34390399372122865
0.2637011035704424
0.3409559201748896
0.3301364621004984
0.3920255857459256
0.4009517203054431
0.4280817925467823
0.4518518371645332
0.5107365265608985
0.5908771302518246
0.5158821814424152
0.5987929857426612
0.645659690815737
0.6799539960501173
0.6959105620608479
0.6883234913762596
0.684517794634785
0.7198123669994267
0.7330923915338923
0.7073272349948994
0.8347986083039989
0.8480121277830663
0.7558981547543768
0.868556952127181
0.7735859222012421
0.7937343596982278
0.9502974126950746
0.8413780625921005
0.912020988145534
1.025682690711179
0.951831837695008
0.8958866822589182
1.108860702454405
0.9725134249205236
1.0181167860016713
0.9892004670953986
0.9538658772896355
1.010288784368723
1.1604213269861037
1.0029189573280277
1.0187425213518146
1.0244838135489718
1.054427183059149
1.0968829185932332
1.090271443054339
1.1277519724276774
1.0847099282130854
1.0216696560287069
0.9446326997820735
1.0723754356816482
1.092519349352146
1.1071360406412538
1.0685974515809222
0.990983954047938
1.024336758683281
1.1228208099904677
1.0519149878065297
1.0000096104238696
0.8807392521387406
0.9447083646433089
0.9821852388349585
0.9765167656674252
0.9021996932266766
0.7540133200063179
0.8573851043872939
0.8632474466826866
0.7933877504807726
0.8312188549562484
0.7285255493622899
0.6957470428297088
0.6269556605924342
0.6500136604170299
0.6182766363635952
0.6790884093663886
0.7245861418473433
0.6354332295328516
0.613239373100611
0.506878808629563
0.4091319988197943
0.5191019567744536
0.45067496531561985
0.4224262525459428
0.3274769451499384
0.36290394264158976
0.275321377162386
0.2659559121504672
0.20490569846615234
0.16719026686280442
0.10751599631735193
0.10601992691187047
0.05363242112708838
0.07644587054233545
-0.06206855494443345
0.016309123786546975
-0.06401316585032701
-0.06630401178693128
-0.14505820857126392
-0.1418260384934854
-0.2548967758133849
-0.2759915876440823
-0.27315628501992284
-0.3760616259783944
-0.37564451557377826
-0.44658226077221824
-0.4746086507611022
-0.46019174276493313
-0.5654505736259569
-0.6174184497699385
-0.654631462124174
-0.6683781384526293
-0.6462479202029292
-0.6706247673230501
-0.6762394866301519
-0.801746998074253
-0.7437791926370444
-0.8587027867440696
-0.8918803790630109
-0.8856509992235961
-0.995575388201427
-0.9538640343759371
-1.0928238799456007
-1.0763695961045951
-1.2009599819570778
-1.1337705013092247
-1.0927471638582795
-1.125214586275332
-1.1963294010582262
-1.132190878680871
-1.1279371431601368
-1.1387730587538307
-1.3223028753957369
-1.2331912771486953
-1.2748368779818386
-1.298263573292668
-1.2830291151905509
-1.3690307500148668
-1.257467531935745
-1.453723988702259
-1.3748553994743378
-1.3892975623930803
-1.4293860685688986
-1.4332085574871276
-1.3791054215243992
-1.44945926500939
-1.3396030042875198
-1.4559860746131876
-1.4640169550774116
-1.4479954035335663
-1.4208855348978853
-1.4396699916456945
-1.447646675191337
-1.4974020357279063
-1.5059675743678511
-1.4096720371648728
-1.4882022431245514
-1.4254841687585402
-1.4538525041590729
-1.3675177257103612
-1.357833514606756
-1.4169585160370388
-1.3210535687167422
-1.3296669471708498
-1.374502825630787
-1.3714011393420171
-1.3102156145646153
-1.342211128229195
-1.28718286096441
-1.2719087335157817
-1.2087593079055408
-1.2003732898426174
-1.1927152885205965
-1.1661531898766455
-1.1588767875874757
-1.1266440426741249
-1.03381035422877
-1.124112956021302
-0.990542875016509
-0.9377802114449229
-1.0051724243432136
-1.031580702967604
-1.0290398536013419
-0.9021542397299298
-0.8701362570585368
-0.841403785711746
-0.8365310385794785
-0.784151172700366
-0.7475039267852075
-0.7205710683804752
-0.6909250043515587
-0.6945583659961952
-0.6284304392234625
-0.5846702142003499
-0.5606195626965703
-0.5096612243487663
-0.49830853534927905
-0.5083103683820399
-0.3612890257916592
-0.4396429135642587
-0.3700163509379511
-0.2624374521802444
-0.33911854847998
-0.23593320885760513
-0.27251230915024516
-0.2213168878333792
-0.12807919652995572
-0.020838430358740168
-0.0787423561691993
-0.1270511537392142
-0.06830889009214795
-0.04176049897404155
0.005603106004923093
0.02402944889393915
0.026769390926364864
0.14482782948222683
0.07221397420741649
0.1648909759523853
0.20473629363717785
0.2139951448882608
0.21609015009818078
0.21130295320484552
0.27213689249586587
0.2577990497142253
0.35825933361574097
0.28764669482307437
0.3900339543601277
0.3473472130250128
0.41994968877007194
0.40950474532489056
0.5584824665322319
0.39775042544174777
0.4732448181982497
0.4599819899419042
0.5676566471550165
0.555420606632536
0.5504568229550432
0.6072034350032532
0.5805745094998093
0.5478714661246918
0.5472722733320136
0.56090960832186
0.6210886538481114
0.5787584736317467
0.5927244144981715
0.542897958350613
0.5754972384379553
0.6467190827633502
0.633646470025515
0.5630512994276808
0.6196676438888074
0.612948936780582
0.5742902970634174
0.6609115020292199
0.6644464973284665
0.5557046340385078
0.5850176933562758
0.602632188037344
0.5224358882685374
0.554752494143863
0.5507801921469077
0.5547573235976955
0.4839597533224781
0.5311095674799087
0.5346143733788385
0.5022516522477654
0.5814060019315815
0.4068737386964694
0.43720461690018886
0.44184358183724437
0.41968542870437314
0.3542154787870967
0.3881380351446228
0.4260029911996469
0.31686354630156327
0.3213520402553907
0.33283886280231045
0.2769823004073923
0.19621847949688898
0.2202627117594893
0.1807682274330052
0.2936886532471662
0.16883394073859095
0.15807814910497817
0.10842625896231982
0.10446217944793923
0.03265929349844986
-0.031969281134811865
-0.05600899729591535
-0.041492507364532694
0.025833213463136592
-0.05275486418068712
-0.15656227071731743
-0.17243782357874723
-0.1353475851943763
-0.2325883897285187
-0.23918658278801408
-0.18070576030879937
-0.18938869081406226
-0.27017826059969585
-0.36679706851984367
-0.33322376741075865
-0.3474867827485778
-0.3292436414135801
-0.41473753844454836
-0.4450704544735923
-0.47141516095802655
-0.49864659906434183
-0.5089942323280987
-0.5903237357773559
-0.5801298330148947
-0.5562561015268703
-0.5648648170814202
-0.5484228951936214
-0.6108010497405676
-0.7720026213198637
-0.6550739452455512
-0.6449457428802652
-0.7243704583632594
-0.6909627661230016
-0.7290578950475882
-0.6089261744353306
-0.7816708411326333
-0.748593964667436
-0.7882738582298584
-0.7260003677896679
-0.7704019394431267
-0.8254156916071997
-0.8498265105212618
-0.8134408217070594
-0.7807326816811372
-0.8368401958329668
-0.8666432426270513
-0.7739175019183677
-0.9523968992055976
-0.8481398119539083
-0.802627641134019
-0.8066751278144261
-0.969412690159335
-0.8075043683888996
-0.8295674290990436
-0.8747534740116861
-0.8025931845573668
-0.7536546834381421
-0.8100788946868359
-0.7635743276366506
-0.8204487906451394
-0.7213033439675747
-0.7726145324040458
-0.704328489948503
-0.7178319021225507
-0.7622886476112078
-0.7425494159361754
-0.6935039182900951
-0.7099743430750853
-0.5962109834187853
-0.6191396503647816
-0.5676193425198047
-0.6339778435977393
-0.5707584052896237
-0.5386054530652553
-0.5054336557715551
-0.538214939409598
-0.4400013827710518
-0.3833976514378179
-0.3730576950648744
-0.35926311929901666
-0.3749290926185467
-0.29766194531246876
-0.2599395928026439
-0.33775429599175016
-0.21990576366964526
-0.11776416787257758
-0.23638523144437323
-0.0912829961147023
-0.0048205398445508585
-0.003069867400164246
-0.040239735577594915
0.047726612008531476
0.08601987007566257
0.14248245415149602
0.2685465491494069
0.1890704232995533
0.11100663102338817
0.32232014020130845
0.21670068831043238
0.3005194461349679
0.3924869265834502
0.4454493935688245
0.4701793586806602
0.43314919337782076
0.5436820961102882
0.5205191837119615
0.6047878896896485
0.6295450957397617
0.5919458873043555
0.6500733884033968
0.7089792466398396
0.7546843343395975
0.8129944966517832
0.7885568872402098
0.9433465882608019
0.7537746475496815
0.982260194858767
0.9858814340960976
1.036985936974084
1.0197425771073474
1.082323771931776
1.067044199279766
1.0762151207766457
1.127648985259568
1.19057388795505
1.14383165935718
1.2163162612728697
1.2341696715681638
1.211092508975966
1.2725393613511864
1.234555999942886
1.3127681686551649
1.3246240152748143
1.3500110821581974
1.3784384537588121
1.3414074749726388
1.3072127348896507
1.4627236675434976
1.3925861076771775
1.493674970722421
1.4872965412281893
1.4764645269419376
1.4547531175796085
1.5059568894909379
1.4771512185088707
1.4007310255341225
1.619992604744799
1.4964004378390492
1.4904888994953187
1.4088999602656702
1.5090775739196163
1.4867137241812103
1.5331280361254274
1.5513217065199865
1.4264719812531481
1.5082856135877194
1.4096291137278565
1.4447186258519509
1.4956240517468868
1.3550544973476104
1.413849853104772
1.3924071641024705
1.395287305194906
1.349630280313876
1.3759135654847359
1.4184938916191312
1.3532791650918667
1.3290361155257782
1.2266695090219841
1.2442296040425167
1.2759860304891737
1.2492796647931665
1.2390984817339206
1.2372260823013932
1.2323631369323846
1.2248718631407947
1.1068469529977427
1.093956744128763
1.1213807895079226
1.0155329425708544
1.0053381269569461
0.9993478436065296
0.8475959569324544
0.8682203317625847
0.8185245061636007
0.8061360986387258
0.7644504483055339
0.7575175750386622
0.7388573406605555
0.7002812339088403
0.6344177474643212
0.7075321118098007
0.5717499380179382
0.6226266727867094
0.6010855041245671
0.6281243889444681
0.4515765111746237
0.4506342564115605
0.47376623118923444
0.3226046510110704
0.33495408900410373
0.26878287168318205
0.23317664752852107
0.18761848883848967
0.22080987546069863
0.20960311239861187
0.1422186412782174
0.07087270085223049
0.0034883421960298575
0.03683997610765623
-0.10937092723611258
-0.08477035688814008
-0.15139716197198894
-0.09903983086776175
-0.1854236484745095
-0.21125277036209106
-0.1723249179479749
-0.26012342464140215
-0.33273314596893383
-0.26138075435657177
-0.35460630609708066
-0.39401819877539646
-0.45309363463535013
-0.40896124494783354
-0.4585209743754267
-0.4590466767654309
-0.41896032019742996
-0.6238511043129282
-0.6316906204604155
-0.5168329799565742
-0.6085033126364615
-0.6472941636127728
-0.5982533084064054
-0.62753129465513
-0.6861289303082138
-0.711903149984802
-0.6751354859090367
-0.750479227329755
-0.7138570966041201
-0.7112084587093351
-0.721259578160268
-0.7345645612868758
-0.7484837340300876
-0.7197043517215268
-0.8235421319926762
-0.7527431632576864
-0.8479730498163418
-0.790996109739911
-0.8419659455112385
-0.8170076650191544
-0.8951220475198527
-0.8102137625105325
-0.9439006188598675
-0.8027849855708915
-0.8093290464478622
-0.8031496723910667
-0.8686914118171523
-0.8139800395958919
-0.7420253058471858
-0.8873233991498481
-0.8934807519618189
-0.7716278434762449
-0.7010030862532793
-0.6817142162157499
-0.8296292163064752
-0.7254258285819141
-0.7503610860849124
-0.6649032424425023
-0.6918608904051569
-0.6510874594155653
-0.7286596694418745
-0.6308124067901683
-0.6089746519197509
-0.5730441183222083
-0.5869232801222892
-0.5991894634565197
-0.5021297024934352
-0.47351860463998424
-0.5147872826420506
-0.5036480793513968
-0.4775968636570837
-0.3623696723982616
-0.39334545175577534
-0.4394573341423181
-0.42091871686146404
-0.3260620283489363
-0.4041164064320458
-0.3515399188828391
-0.21277614918649357
-0.1960299915380344
-0.20064668638162766
-0.30339337619889084
-0.21376825447754053
-0.10904581333092098
-0.06645166256615838
-0.02042149449412685
-0.08383014316340358
-0.02886808488905032
-0.09519715683294719
-0.009498334116297365
0.03260182932246626
0.028416871616756066
0.04066058421364976
0.07430460901641484
0.04723954468401621
0.18191494337680536
0.09369709443362315
0.1594520210847293
0.21764621494818992
0.2729322892391159
0.33795232173753287
0.35678461245361054
0.34822369020149424
0.3161212822194037
0.4911226347369701
0.4254598395778871
0.35354763050241095
0.3668414703757519
0.6002432019949764
0.4326149441389543
0.49035116815420166
0.5395489182379354
0.45452103899726914
0.5144980877693198
0.5755115898127288
0.6391725238812547
0.6123199329148258
0.5571508502497375
0.5710970516830797
0.6629633446241325
0.521493923520048
0.6217900378554976
0.5981036642886496
0.6246476217566044
0.6531954578378802
0.6744368735095249
0.5769432820171143
0.5682523361315628
0.589729952520556
0.6467823802408195
0.5342836005502882
0.5529723907260358
0.6138436199098526
0.6032314833185269
0.5814072434475965
0.6097141987779681
0.5458837631442952
0.5654517448896067
0.6154304856169949
0.4938664812010806
0.516553791626925
0.5047941453576115
0.5359398616552482
0.48390302475324515
0.444557929680058
0.48695514989377753
0.4704024617073216
0.4546756703905138
0.4562164078998695
0.5221016601582353
0.4148996991665348
0.38583864633927384
0.3691924540413985
0.3007519590394239
0.3095059050209113
0.3170043237443085
0.18336279601176309
0.22500087463142474
0.27199788050926627
0.17092772643159004
0.15857054919601177
0.1136289491115021
0.034155018796716674
0.05476706688362725
-0.026014558566648617
-0.024162625047401885
-0.05802159116586029
-0.08784100796688094
-0.13219909166560315
-0.15007710965435464
-0.1756181912747471
-0.16849653106202878
-0.2536405348783341
-0.282129718628552
-0.39741181028578176
-0.29795990883726514
-0.4115313256808519
-0.4320344470380002
-0.3228719448308258
-0.3909178740865072
-0.5488197666692015
-0.5058764000629082
-0.5461633773772436
-0.5812498398710979
-0.6611798264096966
-0.6209366356614824
-0.7318640740852554
-0.718358538528566
-0.7443897887292776
-0.8453834494257092
-0.8492141585417426
-0.8810522970028758
-0.8926180348017431
-0.9783441467410828
-0.8859440864016956
-1.0029770555998727
-0.9506101215288388
-1.0644555468992407
-1.0763618701039988
-1.0616016670330868
-1.0283525190645977
-1.0893637061104902
-1.1090987667301653
-1.2359032289640297
-1.178032383679241
-1.175056618130533
-1.215929332647796
-1.3865961766697366
-1.3068566223077993
-1.2913149396288746
-1.3822480475778003
-1.2800119726869632
-1.3433713129036082
-1.3049870788935
-1.3126943799560358
-1.4128181944370186
-1.3039162051529731
-1.4234692524493542
-1.3967255708141384
-1.4498662603015193
-1.5000610461492976
-1.4195535505613095
-1.4021667309026733
-1.4684991661137972
-1.3735780645091966
-1.5456232374998646
-1.5037010509428188
-1.4585240671569946
-1.432832717399046
-1.3672405723528296
-1.4004669386745277
-1.4375155672844233
-1.379662786458453
-1.4967301779425217
-1.412283769953731
-1.4243591874968489
-1.370435336429748
-1.3102933788642872
-1.343594732636796
-1.229635389134707
-1.3147984995774793
-1.2488175974622695
-1.3077626508391422
-1.3045278990702263
-1.2589613510711517
-1.278413261623687
-1.2961255218360268
-1.0627145966868152
-1.2362907880394647
-1.1155791309142633
-1.0828614592431474
-1.104768758190867
-1.0870562003997544
-1.1005552122983258
-1.0330666331281064
-0.9741599152553576
-0.9900954400988039
-0.9277311419354272
-0.8762694228652438
-0.8267694928823683
-0.8386305082561036
-0.7740726094818705
-0.8019420885409461
-0.8212223924702614
-0.6884589265596693
-0.6917806584232692
-0.5948436317774735
-0.5998029366113088
-0.522621182779148
-0.410022162393355
-0.3902259964019401
-0.44267585113568797
-0.35942765865809606
-0.39037535032795956
-0.26082296038240876
-0.2707044106287936
-0.17717267942367965
-0.27224084907389545
-0.11393723158795777
-0.15409458402932488
-0.12750914211280637
-0.07186611689338564
0.034349428417381526
-0.033093930804755645
0.05212771567185975
0.16511849595153963
0.08678740596124684
0.20668642530989914
0.22568520779601675
0.06800579772649895
0.22990362785241417
0.3546987426835376
0.4217941035603908
0.38252414800106443
0.4703330168948274
0.40294592921588335
0.4674619587190811
0.5065907718664969
0.5411620364020014
0.6479506196234055
0.6319386784034021
0.6202302607278162
0.7283214567500751
0.6979908981570422
0.6750467664923891
0.6830910937790198
0.7994638229876421
0.7134691605531043
0.8089040366315626
0.8758977932024089
0.8568240117374951
0.8602334529642527
0.9158123074988191
0.8998993579170421
0.9166413081199692
0.9057632675370343
0.9320743662528571
1.000642501284406
0.9180661195379884
1.057184116548897
0.9958537915680813
1.0378933047461203
0.9605116722933963
1.0719367749693123
1.0615790117343569
1.0886213408237562
1.0687615055528648
1.0597462341386896
1.1138210754272413
1.020525561865255
1.0471447915255423
1.031659910943154
1.1364911957636357
1.1880966779675703
1.1495729782453694
1.0554253236009121
1.053879575606015
1.0803427130720933
1.1132145105223612
1.0138493303564977
1.0484063445029654
0.9403307393681817
0.9697318777908174
0.9398286459349272
0.9899499453306569
0.9688652525845541
0.9619382896591906
0.9343094494631797
0.8754728589597085
0.8500488909957387
0.9106412053169312
0.873777162896202
0.8088178104856527
0.8309764095574665
0.7354709191056035
0.8447408364452832
0.6767869428460533
0.7193874314290595
0.6562672813019448
0.7206289408129014
0.6804674924069565
0.6973413476540647
0.6790046382460649
0.5201616965397398
0.47248193406933464
0.5589144948913405
0.5363681530951718
0.42354610091663153
0.4551908854110885
0.34436872995354895
0.36404458038468235
0.4043964051884455
0.3281979515007475
0.3493853658301931
0.33660459396731146
0.21385975259263923
0.28215509907306563
0.1430962390571146
0.19741447604595824
0.08304358890452815
0.13298460178611193
0.08183878274960349
0.07197910116374938
0.09037006024055916
0.07959126624760676
-0.022814300930224712
-0.04761804262220556
0.02693395895169172
-0.1354719137076322
-0.11991091170344494
-0.176223236477423
-0.22780916695177517
-0.15173662062584004
-0.15036566921532993
-0.27970821741048263
-0.30140786439919354
-0.3135139109485667
-0.4089266905627753
-0.3001464564357524
-0.3021611459340439
-0.3407061489809259
-0.3906722462013694
-0.36579069975273626
-0.3311570587798016
-0.43924596808112837
-0.45269878122225826
-0.3958140755494419
-0.5257946397706366
-0.5337452591619405
-0.514387752069659
-0.4701246380394247
-0.5300939678285154
-0.4304663157746246
-0.4408944795407824
-0.48074263641338
-0.5085308140393457
-0.5225604193304088
-0.520129874879127
-0.556360449571579
-0.5833125463596429
-0.5800902760810297
-0.5029449585594552
-0.5408738695782576
-0.4512968581020969
-0.5071906130041652
-0.5252972091288046
-0.6615483252595928
-0.5567201073016784
-0.5100757587788823
-0.41434769168408864
-0.4641899624788028
-0.514218788661952
-0.41136883196473256
-0.47533554044278253
-0.40356896488195493
-0.3449489708667142
-0.4395681382215417
-0.4351716091208614
-0.30401555542224573
-0.260129402219491
-0.27158398731412253
-0.28965838870449495
-0.24028164402007576
-0.2898638036232584
-0.15623348159121073
-0.21240645911554085
-0.11531357481243679
-0.12618961674485793
-0.12867000629736097
-0.1293486718715916
-0.07213099529824515
-0.001526221113312562
-0.06241987118839466
-0.019498287079892866
0.019844386606727257
0.03495526545746123
0.09861882687737206
0.10533454069416906
0.11012265108831679
0.1313111774894032
0.19807273627896324
0.31723710284725554
0.29681612536444274
0.3483221009313251
0.2829187338884459
0.42036539180532567
0.3993256934733493
0.42899655401561393
0.45406905878306536
0.5318512680185791
0.3930207407799198
0.5846923237123287
0.5057322106308696
0.5635672560493541
0.6349836311609148
0.619843890721567
0.6974343662777123
0.6896992304377206
0.7363227605538001
0.6755791728629563
0.9327262187461388
0.8219743383497277
0.8802957862273472
0.8746595625539907
0.9889656350354357
1.0432100502604778
0.9626981134219124
0.9491831509537407
0.9468780667152448
1.068768868301159
1.0210509580574916
1.0617875295356407
1.0724578972975312
1.168607034718564
1.0834866102536358
1.1669037344091149
1.147243294640835
1.1227367303346831
1.1966594790247316
1.1089588441829399
1.2211834293991046
1.329135349270145
1.2040311743895975
1.262480983260473
1.286582874699378
1.3443384076613183
1.296597812464098
1.230886274453187
1.287125302579804
1.2347372448645706
1.2051931720025069
1.2810634535449912
1.2516222813956643
1.3148510207228272
1.3141560924607418
1.283200301279318
1.2894303287101097
1.2501652072892229
1.3431821973551976
1.1951654111934948
1.2242826379541707
1.2044580778633607
1.257027822943556
1.2560345850647743
1.1677798079942243
1.1883205750332335
1.2186779468305322
1.0874854627306507
1.1731568073925278
1.119617481606291
1.1465549380304807
1.1301667875584336
0.9952404460629691
1.0345383408045385
0.9571252764274398
1.0160864875142461
0.9882027654441333
0.9930846521091939
0.9721127112692701
0.8949714375475776
0.9494807766243811
0.8586515812326827
0.8123354068889913
0.7677443587000141
0.7722028396956359
0.7766344784348183
0.6243178693903856
0.692212278795376
0.6547100394042139
0.5943502052165929
0.5214991496985563
0.5966166668149075
0.44031757454787657
0.4657712973454349
0.4348342785258538
0.4296514995002576
0.3338794991757392
0.32601878135749046
0.24360796025646006
0.2839689463094793
0.19036898047192055
0.12006272503503249
0.041431544411075015
0.05779691536545056
0.05429515325161625
-0.0429306337074552
-0.08132560688307536
-0.10370873026991051
-0.17659098689769195
-0.22839048586541566
-0.15484869335661783
-0.22556792490127106
-0.3335579931309366
-0.3087170874780518
-0.3757405179478133
-0.44724488564971854
-0.4012424584409245
-0.4454056251598406
-0.47486798982069184
-0.5356740826260621
-0.6004449020461383
-0.6535547024022531
-0.6794287486319747
-0.6533117889981086
-0.6877751606389195
-0.7411507812943481
-0.7471432165042152
-0.8233857003922078
-0.8070427299595697
-0.8430898060937798
-0.956252960627208
-0.9695922645843381
-1.0462285462710126
-0.9702508031840673
-0.9647034670464839
-0.985867667309927
-1.0132319299756667
-1.0705111990179281
-1.0489519060131869
-1.0506679006305728
-1.1795041052978101
-1.0870316034519165
-1.0887585734660672
-1.2599012256195672
-1.1632680152528783
-1.2141425849197574
-1.2495056611339437
-1.209305398849198
-1.2413472870467401
-1.1656302202901918
-1.2618588631789247
-1.2841706514358646
-1.2212828937947569
-1.2800897669766018
-1.3617285249033126
-1.2402993211827882
-1.2673520896491106
-1.2651947109744952
-1.2090862027181644
-1.3460659264804593
-1.2867832308296545
-1.2565083968942286
-1.3057497859199507
-1.3255939431272241
-1.3119423356891102
-1.2158237914215035
-1.3178258468354553
-1.2909628082304003
-1.2581457326996661
-1.250307078374218
-1.180963170933771
-1.2051110955346926
-1.25883075890117
-1.1794922195573203
-1.060953029337649
-1.1180773552620349
-1.098818267462037
-1.1447154199291971
-1.1335237952154253
-1.0945155512684013
-1.0172325961369333
-1.0201763863613473
-0.9800940870923147
-0.961792188478483
-0.9201515413418186
-0.8804226422810647
-0.9131267866455471
-0.8396872031869216
-0.7873761856717286
-0.8020675185847935
-0.714760101197046
-0.7436639833649005
-0.6121412959369463
-0.6344070498866133
-0.6895762244285213
-0.6903013424646727
-0.6352663944239223
-0.459164134451801
-0.587844306514445
-0.4705353353209839
-0.5129929218401501
-0.40320919588518656
-0.4203236079678606
-0.4230965652666113
-0.3794054057466658
-0.2828628938587545
-0.3036794904616644
-0.18250736795924494
-0.25214446020806536
-0.3807556507113393
-0.2106521895428838
-0.23756795224429877
-0.14771611593887676
-0.13246662298777498
-0.17332932419910357
-0.03947097348552049
-0.04203070705340484
0.0591889096656307
-0.02296742488158303
0.05754032714370063
0.01672144261687647
0.12458090653379028
0.08511425930086783
0.20098459088885845
0.19313943855194404
0.26993684131265083
0.3528273031937604
0.1516038167438376
0.3574832178538083
0.2664553275354515
0.3090191906886634
0.29877062756297035
0.3776555641635583
0.34032475240785837
0.45579798283822537
0.3141669511231395
0.30332023047181456
0.4428751046828405
0.4247543243337195
0.40323308657963597
0.4915263794000913
0.49213264461634326
0.44671775700277533
0.4338432281510996
0.48563380289385083
0.5319400636990523
0.44381383582627376
0.43738814437736084
0.4230477245027002
0.5404665084090914
0.5376101228302441
0.49978680781548923
0.5278630924611394
0.5520920016605422
0.4374021347485659
0.5194762701028391
0.4059188087221741
0.5669357549787127
0.4623887144344448
0.45404167147982566
0.523727306117226
0.5394342281073148
0.43052211693025866
0.40934719122640534
0.439003504688516
0.4127335189177355
0.36751507405875855
0.34164523701158933
0.4237256742570391
0.49997083533954534
0.3284087316856576
0.3074479432629929
0.32085412492104437
0.2576029404898406
0.21765063567992218
0.26170911236025723
0.12488424458742936
0.2091254416901826
0.2544147515009047
0.15522347029612787
0.14880604868050537
0.04280549255012127
0.07977985501101217
0.12548678520268652
-0.03388028658883521
-0.049808752402734364
0.07146233264176154
-0.10922008426746938
-0.09566926417059843
-0.14874126410145816
-0.06822553232470815
-0.11801886025645314
-0.12871951590045483
-0.22546058112911463
-0.25779803987131283
-0.2654061342214195
-0.3338783655533691
-0.43144707717744335
-0.4214007068976142
-0.48929670200350084
-0.3522682291211623
-0.37518509629160035
-0.46074593844866624
-0.5463333022628389
-0.5956826769083465
-0.5708594881235804
-0.5992098833589071
-0.5818892209779744
-0.6458662738432612
-0.6896410715899385
-0.6465629550381757
-0.6740293943088642
-0.7275924534706179
-0.7948581688460319
-0.6552906628294249
-0.7373515522878534
-0.7715220718658298
-0.8507252956199478
-0.8213885107204305
-0.9044307461034907
-0.9651165883562272
-0.8681342429604695
-0.9456414777353138
-0.9408630348295516
-0.9448079719586995
-0.9270275235838669
-0.9975195902773945
-1.0581474525508718
-1.0061985600795824
-0.9972333551425108
-1.0629757004922644
-1.026310326843022
-1.0528007165282756
-1.0219612537921854
-1.1145392221556167
-1.1426669744046534
-0.9726958379957135
-1.042233311417341
-1.045017562763132
-1.127411708436871
-1.0723816066621648
-1.0363392893658865
-1.1441163235407326
-1.116064251949735
-1.126721425920154
-1.0520561885916242
-0.9768376072695983
-1.0180975629981879
-1.0930888119222413
-1.0022668473084568
-1.0475850872193246
-1.0896504086267755
-1.0516158438061118
-0.9053380152719418
-0.9062910380647722
-0.9129294816226217
-0.8399146035248616
-1.0001247182553192
-0.8727719039786862
-0.7514262480194169
-0.8831166115491013
-0.838096076002733
-0.7827020125777745
-0.8325726614483029
-0.8112445753837936
-0.6447206423192642
-0.748608603945044
-0.6853847983551902
-0.6965303555735435
-0.6851271849243333
-0.6203584706707782
-0.4763710562211902
-0.4941151939372499
-0.5636432948849657
-0.4202117814936463
-0.437238598671186
-0.5412121182773947
-0.3885328379286359
-0.293901484437457
-0.34637674828730075
-0.18770724305508435
-0.20251106448191708
-0.20697606923634343
-0.13453906120882161
-0.12472499875595901
-0.089438322589518
-0.03382995407046374
0.06454394604718819
-0.010631783429599896
0.09235215760285873
0.09448106135321963
0.18979940386780986
0.16518038295145848
0.2666301575201018
0.25404455451335567
0.3192921597904501
0.3615019968351626
0.3505324292529415
0.41954146051946906
0.5132514146759168
0.5483083705510772
0.5541095336884725
0.5641183828989726
0.6498722903877056
0.6204734196174525
0.6780396562448091
0.6923593333918091
0.7753731419493629
0.8267083250948973
0.8169347491019274
0.8733133883466809
0.879718839929985
0.9563832343873374
1.0383900068947423
0.9767457949108903
0.9627457031163646
0.9429982190446289
1.0618755108631517
1.147310384334993
1.117829945071409
1.1284012125370146
1.0774154149434303
1.2371858363152184
1.1740200426725373
1.2398495197035477
1.2769467628928246
1.176184742011235
1.3241529923124495
1.32163613998023
1.2738870118156957
1.3428894640770126
1.3943374196761467
1.3782843173104937
1.2617711097008402
1.3818096634453794
1.360174576850491
1.4218776672591527
1.4240285948869529
1.3913167833830389
1.3465219909736232
1.5095973640875204
1.4608271415277332
1.4897150714743201
1.4212173847925504
1.4822929563986853
1.3858262670101196
1.3902476773747674
1.4969381205102108
1.359986272573114
1.430486154732387
1.308520929919775
1.393794118224534
1.47053256663957
1.4037865244608043
1.3654594395053155
1.4855320920981667
1.3510445345386612
1.3897626731661235
1.3613419997607872
1.3575091039778322
1.3058352411523266
1.2796977473869149
1.235815034250553
1.297334332956732
1.2200228682854708
1.2959861400911155
1.0795210964892699
1.1960243320812298
1.1354001009102097
1.1294881872334013
1.1420161579928199
1.0687966687873471
1.009693513103231
0.9275619388083131
1.0016843188021034
0.9024329179902483
0.9245406608840543
0.8748981952034941
0.8008987276462075
0.891610448981108
0.8327154548288587
0.781791760942597
0.8289623751592732
0.6797798564501453
0.6737165668422159
0.6065782802319595
0.612154487982962
0.5950483778620268
0.46464987757526344
0.5420517688784936
0.46403459868673236
0.3986718893949331
0.38585087339746293
0.34325368384322935
0.3334592703013105
0.3030146369829982
0.44646934459737
0.2292694040202129
0.25488072498362346
0.2182612587723774
0.1504887761367904
0.08253834114004452
0.14085904922310327
0.054078468857101686
0.002947174669670853
-0.05368282743771115
0.005696188421229681
0.016971804748174335
-0.0514714415933452
-0.14058432301396023
-0.18992685121024466
-0.18291000741802874
-0.21782102646910695
-0.2545037766856776
-0.2866969714651089
-0.37731877559529187
-0.212812518229335
-0.3123592561472595
-0.3820822818998826
-0.3171827341622673
-0.3447686016065824
-0.5144344417920943
-0.3983436844311741
-0.5325661786225585
-0.5354001669665955
-0.5001727258722135
-0.5222253380162277
-0.517345993637803
-0.5721539799053603
-0.5135000475904132
-0.5946667991434952
-0.570860892548299
-0.5181574793532631
-0.5699762067963978
-0.5825057387385093
-0.6913601191990612
-0.5749103712174103
-0.6771417486595888
-0.5907045622161256
-0.6590959447126127
-0.6186975849273237
-0.7133110901622772
-0.6701545643311674
-0.6896567940590502
-0.6082120415258473
-0.6277772762674778
-0.6406785916836891
-0.653985121777585
-0.6147608225073712
-0.5621866042695396
-0.5646113602931835
-0.6138628442431506
-0.5814293242909625
-0.6367992787637653
-0.5856797854551483
-0.5423294357839402
-0.5422505225040554
-0.5617668942817038
-0.5503397421706491
-0.46102519469733994
-0.5091969553028396
-0.41413971267106975
-0.4236899442132703
-0.3790680278616139
-0.41240564646097083
-0.37801555971842254
-0.2960382136435333
-0.3602725158538519
-0.2841486464584893
-0.2563636935539066
-0.15163222428036993
-0.16124471523197603
-0.2814302697264649
-0.13208963098555834
-0.11380278377037935
-0.12573048257350944
-0.1520460262773794
-0.09056598116620415
-0.017887164025887525
-0.0737869558399386
-0.06217426802615683
0.08308123161729522
0.07208788321242257
0.05336144711675811
-0.01032106493520464
0.11491831014981854
0.10869904517940238
0.11694751779785129
0.21862648803233245
0.22572231832960774
0.2107436713835943
0.26977618271141796
0.19800922932697662
0.47268379377839187
0.27403383408713233
0.40942358665691786
0.40859997652401425
0.4421742994310281
0.433523729683594
0.4449738700166306
0.4634533881184249
0.471940247269945
0.5138597798641822
0.42271486491794263
0.5151857676327306
0.5810995206914222
0.6305441487338864
0.6544388425827954
0.6656019206703473
0.7112407445137339
0.7047043653135195
0.6982695891947052
0.7026965100951721
0.6737053091726869
0.7093292868013215
0.7540091761837768
0.7320140879959819
0.8209109063467901
0.7761739258834891
0.8425507914619539
0.7255045489048826
0.8771749771650798
0.8537650016277507
0.837654293849222
0.9075048643959682
0.806451919679329
0.884160480900576
0.9487425196537228
0.7614123682500273
0.8480637730592634
0.8720732671328894
0.8314321759863772
0.8405983057067625
0.8225130694063997
0.8293178908334309
0.7430350746042357
0.8257123027389659
0.8868488573841624
0.7020076188948913
0.7096474230116154
0.7507700225584322
0.7692418767517353
0.7739026060482873
0.7376667981320905
0.6663482712747842
0.6773610917249487
0.7407462807822554
0.7121971158501135
0.623971871160573
0.6299546945075458
0.6633905993622259
0.5605583989341825
0.552321535478716
0.5141035411237109
0.5359026584918543
0.4227311638403099
0.4021626593233714
0.42916343125786405
0.41356644541720267
0.3277552578148518
0.31406869416137817
0.27610160462401045
0.22494268035491763
0.21765102411748757
0.20598996557722654
0.1297535032860454
0.184805641916164
0.11364489647851228
0.07242578238879181
-0.0039050517863424006
0.06698230018050043
-0.07901702292364768
-0.1001389520934352
0.00252209906339651
-0.12164505225327371
-0.2543103838786865
-0.28661064341223297
-0.27810953067435973
-0.18189871453214632
-0.4158216570431639
-0.36239275193466564
-0.29350001312364776
-0.4080880087051374
-0.41812796455517826
-0.5134280341502593
-0.48068179504519515
-0.5936611922503056
-0.5756294372697303
-0.607137466924435
-0.714533918497737
-0.6713263722749403
-0.7873618792557936
-0.8710374720101159
-0.8005225989882438
-0.9055920097342554
-0.8792682536456053
-0.9818160198739726
-0.9611840796739942
-0.9687340826330891
-0.964707737275049
-0.961021163872464
-1.0719708270122896
-1.080156454094309
-1.2019830654919506
-1.0843815606952387
-1.213035315534651
-1.2203105644315375
-1.185871075495864
-1.1932045079485805
-1.3736705409385257
-1.2869304235791363
-1.2789788478258954
-1.3649351297220345
-1.3599816233179638
-1.38151764821393
-1.3710279451924772
-1.4524416062867824
-1.3110959359941052
-1.3753840027904922
-1.3834170852506296
-1.558949775368489
-1.527129956782389
-1.4881451509596046
-1.3826747531829915
-1.540596026132743
-1.483398612270348
-1.4865163447078789
-1.488909070638383
-1.5081555069503807
-1.4606247638903955
-1.553182942101993
-1.489290944079914
-1.4766866320237104
-1.5302321252257194
-1.45882345878432
-1.4492449100107831
-1.3781205670504033
-1.3356320591577973
-1.5330910674603606
-1.3867808445022531
-1.3984113383944232
-1.4763356233984997
-1.4139288634208125
-1.3564361957962439
-1.3808824134344004
-1.4114908590013846
-1.3643351361180749
-1.3651711983969326
-1.3678711458592498
-1.2976043012717113
-1.2087594181139791
-1.3920755073300273
-1.1867712284060385
-1.1986807491300089
-1.1908352378126874
-1.134247205279847
-1.057838958519969
-1.0690353696849362
-1.0289019046486905
-0.9848415212234616
-1.0215446622187923
-1.0242109867551705
-0.9939502707668374
-0.942415555519588
-0.866162604635441
-0.8565318152722764
-0.8406002300137276
-0.7135273955420737
-0.8018949464264615
-0.6780687380209242
-0.6625979584654729
-0.5455173484147904
-0.6633757414894146
-0.591609474079825
-0.573084357241242
-0.5923942521575194
-0.46225075230213947
-0.4085345148151407
-0.35129767057337496
-0.39471845811243667
-0.37428489849652485
-0.21871010032471055
-0.25454955582767985
-0.22024023741595344
-0.23850470891504932
-0.1556015909846972
-0.1410037056946371
-0.044634501088266824
-0.04939212520278863
-0.03695744142309212
0.041908383431424986
0.011026910354967764
0.129417083633834
0.14941494705440994
0.22820965263435813
0.13226169932995074
0.20321509651852446
0.3069370626271031
0.28874961070814925
0.4070728659255258
0.3389949013314845
0.42602557569475974
0.4016608206561368
0.553297825312051
0.5176519136470504
0.4597066859065746
0.5009707944012444
0.5325924090411365
0.5181715005595603
0.5551992754054572
0.5598236861667821
0.6148192733719161
0.7218368246136615
0.6990796337136297
0.5803267234693413
0.7015622147240942
0.6582510845313665
0.7713582590379394
0.7692372135241086
0.7952371048930291
0.8141132210792339
0.7826911441972326
0.8291411417254521
0.7508050748794939
0.8020130086351817
0.8317368988853353
0.8219253464045315
0.8435186861161398
0.7453709238107699
0.8030859223516342
0.8905535177213123
0.96769612840654
0.7893029455167665
0.8594960033781831
0.7885928225412894
0.925234829367119
0.8394402110087686
0.8204541029248551
0.7870080526585475
0.7640093278486154
0.753686688278823
0.7789692327975971
0.819642704540813
0.891602873100562
0.7324145765675597
0.7235309624634573
0.6944788168784167
0.7424340914592739
0.6752484363546358
0.6963969348489152
0.5829559488699331
0.5914342442687139
0.653342717141304
0.6061254298789385
0.6089858777570462
0.5574749812747156
0.6554692717982533
0.6125586623495068
0.47784720804994035
0.5231149630624701
0.4011492505031888
0.43289375950416736
0.4785922485650107
0.35643274521638213
0.3319346444807757
0.3668514712216691
0.4216365607670213
0.28960762024047676
0.325121415944951
0.26491926321710474
0.28411798261869464
0.1942629533756975
0.19969138614706788
0.06383616612134317
0.05273567403735939
0.0996911125842985
0.12477260602729608
0.045821986023933226
0.03885234230292447
-0.026500090424534977
-0.06599712128500868
-0.08592335392691987
-0.017473575769506366
-0.14453359835595012
-0.18174875847935895
-0.13403960267774734
-0.1639260115468545
-0.19504855146096553
-0.21049228827341543
-0.2788176856721896
-0.2229570407246356
-0.23522046198398022
-0.3382594261198566
-0.3891914673436563
-0.3476666218793344
-0.42218555183190953
-0.3974706930523719
-0.34663527515701376
-0.48252019716834804
-0.4865450224703187
-0.4650147019257941
-0.5897116042247449
-0.5297077056947599
-0.49810771400957143
-0.553071210106826
-0.5834290307135085
-0.5158653459602297
-0.6222121692231303
-0.6365066209308823
-0.6076347384127759
-0.5679663012746684
-0.659513292774701
-0.6463324800662524
-0.6200125855228112
-0.630360253745704
-0.51596696083676
-0.6250086090971878
-0.6617177147948639
-0.6172123167636187
-0.570162299874324
-0.6860391875193409
-0.6613952895106463
-0.6091198147885344
-0.5679507866467727
-0.6036436349491875
-0.6523570252344685
-0.6067990907070697
-0.556557725648963
-0.5577691985535315
-0.5400291629355568
-0.58657638439399
-0.5285290254317466
-0.46785838661751317
-0.46359181629595225
-0.5395211572753102
-0.49756941925837944
-0.4693635699798935
-0.4465595978542921
-0.3886839229917132
-0.47755012176706074
-0.3568847475982588
-0.44591851732661164
-0.33412069063150746
-0.2763652572399228
-0.2980078249188358
-0.30780234184163324
-0.21499591886436992
-0.173236393714379
-0.21146284398810955
-0.16662967146089894
-0.16848219683079518
-0.06618988543504899
-0.13722947853026415
-0.05532041841449506
-0.0731095604404125
0.0033165820429678344
0.09673025013938816
0.08675260960107709
0.03490277375619001
0.09566444586329267
0.12290793726875572
0.28174919378081986
0.2990178519623753
0.3109911772814449
0.4005881190184546
0.28007326886351347
0.3695896536860295
0.33521579679169305
0.3902308831384984
0.4555166366492356
0.48541901011774247
0.6277499055271398
0.5667578246919864
0.5679638082252947
0.765331123654007
0.5506836200665872
0.6609991203285351
0.6604911053799528
0.7814006576266839
0.8224977596508012
0.7884586148648048
0.9143627163124176
0.8639884680109611
0.8758051978332121
0.8738874229157446
0.9064178911239555
1.0176448253768506
1.0761025094409815
1.075593161214853
1.108633716555858
1.1569830920635367
1.1335501409719004
1.1871892909202277
1.1328348819869272
1.1752464980103896
1.177187897598983
1.2286310108154506
1.2748107620070015
1.371089191601385
1.3707437867608105
1.324620891664469
1.310788460457606
1.3256854594876142
1.3447318941107809
1.4071538230260978
1.4079270850763352
1.4128206812483708
1.4983970750419637
1.4482156332714733
1.5316774812054499
1.4844725221602866
1.3540786036451866
1.3969817900027353
1.4931015947938533
1.4477949294602694
1.3716448399897057
1.3747495678070694
1.5485440212679316
1.4428536183062624
1.3914013697083176
1.4313803672697127
1.382583233499796
1.4283257388514925
1.4337663358082866
1.4017511441601096
1.4071532453946265
1.4000669975289088
1.381754541458085
1.3491392295785969
1.3026157085972478
1.3478908539757375
1.2692857149990397
1.3341180350843467
1.2404724697029128
1.208046920837571
1.1662475879301193
1.1043492406453959
1.1599638765305096
1.148170487314707
1.206395310291716
1.051402858996071
1.0351006394215776
1.0761638704312126
0.9427245377512214
0.9383608916252092
0.9170391224171386
0.8690674342597459
0.901902487661958
0.8813847198333712
0.7913345154183942
0.7869673975506699
0.7126676017121366
0.693547420964274
0.6451120824164593
0.577984510057159
0.6610752887270275
0.6153803634238005
0.5686650835359688
0.625361533195096
0.48443692055008303
0.3921631537023149
0.32799090203247444
0.3562847691431056
0.329309561067268
0.26974730620685533
0.3013126096149831
0.24515459897193118
0.09527338259479728
0.07814933989208532
0.06824391587859605
0.06294913005055291
0.06858445996379259
0.014030934166331652
-0.028709887483478837
-0.11780296051692825
-0.09238621945993683
-0.20167762722930657
-0.1143467738206612
-0.22616501354100457
-0.2515174720742683
-0.3145562281771951
-0.27625783085348055
-0.4189528615326099
-0.33151424604886914
-0.536882127026781
-0.46880752352132843
-0.45567248410539746
-0.6755974792755384
-0.548247171194818
-0.5729823028993065
-0.6895170500279323
-0.6787455116755783
-0.7111745956639479
-0.7225200307657593
-0.7509665406456976
-0.7521066152398123
-0.7596121661186082
-0.7819514260472311
-0.8165499465284914
-0.8914579516957601
-0.9201758888896175
-0.8405520235169144
-0.9612907150689145
-1.0284439753150978
-0.9467103041439201
-0.90878878959308
-0.9242916087838494
-0.9860841402067831
-1.0649860718676454
-1.0316060051889702
-1.0112342618441421
-1.041699457438013
-1.1420769902096564
-1.1039676726833771
-1.0095730826313245
-1.1668127841181217
-1.0739324890319488
-1.0717478639891467
-1.112188884531012
-1.0188710854052514
-1.0653357615345895
-1.0904275063960984
-1.1800503771624835
-1.0173556315496262
-1.1182002618928448
-1.0146935948539826
-1.1262191007895077
-1.0315912781847398
-1.0943045610535893
-1.0165670281641133
-0.9942868296276909
-0.990392378061765
-1.0771413492911852
-1.035382698605573
-1.0553924833207933
-0.961366645128808
-0.8915448856170032
-0.8582244719630159
-0.8532682565617108
-0.8759314327918711
-0.830647290669829
-0.8537523849089846
-0.7692988865223789
-0.7767438282689398
-0.7574433631651445
-0.7211213655186707
-0.775448416150936
-0.6819961221833776
-0.7403043178544167
-0.674429764085792
-0.6590463322925612
-0.6120891593198085
-0.6155582012199754
-0.5627726556739207
-0.5551770606307772
-0.4713195968975578
-0.3843643317947484
-0.4828572450153401
-0.3884981822136584
-0.3720729065743869
-0.40001297745326214
-0.3070084166936916
-0.27582401810343615
-0.2924140248929918
-0.22108004559560368
-0.2187504716672021
-0.20851958039398139
-0.23767493306657517
-0.19432908205267274
-0.08222306128130114
-0.12869270183485446
-0.19482778971919562
-0.11427834308588533
-0.009118670049553041
0.012095000906079524
0.14044416494977915
0.14562911396812156
0.00625330067560205
0.059283783576332315
0.054883135430795274
0.10128058088587472
0.13204090755037245
0.16397823207143783
0.12804501478317104
0.2287087707643034
0.22848610677755485
0.30219883833434535
0.2823897403559178
0.3263765696702874
0.3894615808099973
0.2754316066423991
0.3618322027071686
0.39032239785057193
0.37957425073101536
0.34809620492849086
0.36660610119495074
0.4806393297498145
0.3844697827428582
0.45020617713193156
0.4854484852170735
0.5400858126142547
0.4412216271925793
0.44824270115169806
0.5619395194456497
0.4608101396210263
0.5141140264169751
0.5564642613001965
0.5309530907447949
0.4726723596340843
0.4922603595750255
0.5055662939371266
0.5878634886438996
0.5017938336974371
0.4840985968602745
0.5157381287437639
0.5536728362721854
0.5155085542349144
0.5201873473696453
0.5414404705271116
0.5039360110413119
0.4047268561326639
0.44375190287125144
0.3841789097807561
0.35555767053980025
0.36920476049241185
0.3447000596683671
0.3832741409314154
0.33730281286822683
0.2646392309016469
0.27684051952918387
0.22383954116495725
0.3378105440745118
0.23077519989067805
0.2273999347710404
0.25520974279687436
0.2585220714005723
0.29468200049773274
0.06155578062011145
0.08060890388130787
0.1088171416456887
0.12695208032884178
-0.034168386730085445
0.05859205057413343
0.03462381739228363
0.015046450433128133
-0.020184090901887136
-0.06618549297873358
-0.15184346636585544
-0.19671652078009488
-0.19310991529251517
-0.22961223869389047
-0.204126369039182
-0.2914035743460561
-0.23087146247562462
-0.28751099574982125
-0.38365651128006734
-0.4086479908176565
-0.5002998916828733
-0.5117866863509175
-0.4634236854767055
-0.4906534592833791
-0.5262487646661786
-0.44639042444139077
-0.6408659855085319
-0.7054190549329609
-0.7124250676347716
-0.6660859880804877
-0.7651236204905855
-0.6779644930747187
-0.818832027181548
-0.784739880785537
-0.791369785172193
-0.8457973541313466
-0.9753724049534827
-0.8993775212711057
-0.8330180473253072
-0.9447082083107393
-1.0446285309458503
-1.0163655871496275
-1.1384989079165238
-1.0557510801974908
-1.0691402008852369
-1.059092032576467
-1.150813910610727
-1.0686727206956843
-1.0382360082598543
-1.1169313098682452
-1.2004633721051403
-1.1659946450159355
-1.281020936960103
-1.2967686613793021
-1.2528256054494442
-1.2785136528296943
-1.242882502566965
-1.2891023712527518
-1.2541005433736052
-1.3064516627712517
-1.2560267422486524
-1.2696248752530814
-1.2186740990881941
-1.3329349758684619
-1.3059694057489917
-1.3938928801027486
-1.2418233824017006
-1.3476634234374913
-1.2595740501489874
-1.2500515959413945
-1.3218388826095973
-1.22179616763125
-1.2767644646947724
-1.153166169480169
-1.2862336494079427
-1.2618051988857841
-1.1485665210805795
-1.2669382834304048
-1.220429493921309
-1.1527944437176676
-1.1406346798782303
-1.1029805872039047
-1.1331033158779766
-1.1630273999383482
-1.1213864570912702
-1.0408540565343303
-0.9797103162265146
-1.0240323657962018
-1.0221287888083694
-0.952150124508772
-1.0074570981343662
-0.9019278817244525
-0.8799919429170149
-0.8603325644393193
-0.8939914467896021
-0.7752077069803035
-0.7049438423523585
-0.8695378513004666
-0.6840355378190811
-0.6461535378048476
-0.6551288819021316
-0.6898511898853059
-0.6458304821431652
-0.5416677934543151
-0.5312133223946266
-0.34583420127740905
-0.4692558711613015
-0.46033153643527003
-0.35988448664342676
-0.36038154298937364
-0.23656963847036713
-0.1408558816753382
-0.3192185719212842
-0.17231583493234043
-0.1295683939197667
-0.12119475364612395
0.015352471966179573
-0.048346298125823826
0.09710574520888177
-0.04881091777548642
0.08923732446483723
0.11181280197256846
0.23080671463958075
0.15507461076382525
0.20781422481550163
0.20416165011886084
0.3000498376175319
0.3415205511542713
0.4297473237742595
0.3885455647184288
0.47834066759532323
0.5162913591230461
0.5424482336159469
0.6788874030571065
0.5748358181325213
0.683611436315961
0.6926819710592472
0.7542988854723847
0.7950266498568699
0.7794353249839406
0.892164543692731
0.8321726859382561
0.821048039734162
0.9226230263994021
0.9186839089558664
0.9637753088172816
0.9194446024781557
1.0305980221347952
0.9695245144087611
1.0767265114475464
1.0851962746760258
1.0090975880288933
1.1091340010543829
1.1486546305697665
1.2005465418039443
1.2215156219845404
1.1441984561419118
1.2429995571441934
1.192993566734027
1.1965494571768154
1.2418073097898532
1.2516958713506479
1.194787540274154
1.3569506721475222
1.2603867966024722
1.2803058952095037
1.301624312605013
1.402643894633101
1.2713383507997678
1.2349970090388365
1.3041080132055674
1.2717806447093967
1.3275264477615338
1.2464609263153663
1.293326719468669
1.2582272123132627
1.1877601940845006
1.2184964323086742
1.3053181264518432
1.19415066983323
1.2436922924167442
1.2177760725516695
1.1755603117385545
1.1861995642089938
1.086240649848686
1.1441858887044063
1.1507580888281383
1.164345078025041
1.0737287622223937
1.1324964149491916
1.032504008444376
1.0659655606962797
1.1019591180730681
1.0973532983859577
1.0600458008726978
0.9512329088223892
0.9009983522375125
0.9753918986239984
1.0412703009989523
0.9042905816059721
0.8262569857473013
0.8794524330608465
0.853811573765923
0.7371712101722593
0.6635771832952853
0.6234667719222885
0.6884622257461426
0.7388162179637019
0.7932666575207782
0.5840997532907479
0.6046125412458274
0.5630402168662948
0.573374502553255
0.4495166696454881
0.45888896558583064
0.3828686581787494
0.4660690243160466
0.35079090511929606
0.37880725851423486
0.31966649307064804
0.28737970454816103
0.2097058290479034
0.1831825356543308
0.13569267250232805
0.05056794785895331
0.10389375278596388
0.14217108347207777
0.08746657952744846
0.05074694283780862
0.05062074820558657
0.05441490509384164
-0.04132816353173808
0.0009325219946356988
-0.11534943207775643
-0.181167208325211
-0.18866788261098044
-0.06844830385529059
-0.11022260539104034
-0.14043334616481273
-0.2077107555777054
-0.25246127617534075
-0.31011655661948784
-0.3705701923104758
-0.3281757538116126
-0.35847206154967887
-0.4030782178400224
-0.3750258443913081
-0.46099437688111833
-0.4520626487162924
-0.3952534403785353
-0.45223151521435523
-0.40445227918192567
-0.438012056952624
-0.5178600361667149
-0.5022591996387431
-0.5354483978898525
-0.4686767566927598
-0.5405103868365247
-0.46894143209460876
-0.4929878774288336
-0.4962458304152153
-0.5088601035534378
-0.5263165694415938
-0.47495709489271115
-0.5647386838293326
-0.4812904876433385
-0.539098524987627
-0.5017627953056608
-0.5280100545181841
-0.49916418747323005
-0.5657077757178868
-0.4769989663986945
-0.4821482851211628
-0.494329952722541
-0.44209437515558236
-0.44231087013932263
-0.35840099806886083
-0.45785836654592477
-0.4401232799809652
-0.42773828698977084
-0.35133522947582124
-0.3579950098717718
-0.4239843232193453
-0.35437955512512087
-0.3088449882931634
-0.35318692000178653
-0.23863091026370023
-0.27501776679770046
-0.22932415640144704
-0.1632645044687193
-0.16974397576530195
-0.18841400545242265
-0.1643429306120075
-0.0787218461898474
-0.14012627537701902
-0.061667084278376076
-0.06643548705074889
-0.02017979252921348
0.12822176197033802
-0.06518728226950755
0.06756396741819792
0.11086734729425426
0.06819476431297775
0.15093332056421765
0.13178392893039
0.24281068202635792
0.21430863220317134
0.26064559235480345
0.2597109973913583
0.3297274430331058
0.28638180890362386
0.4779800875450987
0.320930918620578
0.4517947195880006
0.4247719498323105
0.46801073646740904
0.5360794991794653
0.5416704601562594
0.5820062162978225
0.6023051097885987
0.6333771426653139
0.6751368488072435
0.6946759177246009
0.6667658333072437
0.6565064117044469
0.7536597279263476
0.7847776434882735
0.7386422535753877
0.7724730510903688
0.8217645930957814
0.8173396587858567
0.7970893750924104
0.8921316233979516
0.8532708300545399
0.9428999662662411
0.9754498941537544
0.9175821821138058
1.0108004452044126
1.003816449053916
0.915817902647863
0.9365189241404892
1.0574803459924178
0.9542516192784615
0.9482139712534141
1.0293953685872435
1.0628687091320588
1.012197299379871
1.0414681779501904
1.122601421152946
1.1245929042960217
1.0260779536914744
1.0378922981075989
1.0458912567728635
1.0954994292043576
1.023123896457229
1.106435568826146
1.0824861729004631
1.0659990890041868
1.0006007213711745
1.0964078917856044
1.0560136450370428
1.0490059910303204
1.013484180624347
1.0003641361876665
1.0499008341853
1.0009773887218634
1.0028504188379856
0.8870761202187917
0.9886349304826656
0.9696062714008394
0.9739976784412245
0.8667272083509415
0.9189929547003367
0.754290933326782
0.7833776860094068
0.8109670190554559
0.7484814113104808
0.7057378485700581
0.7618100748225088
0.6556624944038214
0.7112306914613036
0.6193109937778833
0.5521184678484174
0.5194231256838265
0.4606909843597584
0.5431568168920357
0.5548747928520904
0.4690547494938163
0.34252328946514554
0.3648554112255544
0.25709076868150416
0.397807483526068
0.2555641001635459
0.2551656048479035
0.12279232397088143
0.14346738527742717
0.1511909045105359
0.16544357221804235
0.03638378499221631
0.12967825501473434
0.03575148398309343
-0.08181344307799193
-0.1331777637362808
-0.1912666285935245
-0.17347658956220238
-0.2265438056523778
-0.2705162453764128
-0.20381361288131272
-0.33721106430958453
-0.3202530610952801
-0.37113048605377036
-0.45755720231955377
-0.5202165896561971
-0.5267077327092334
-0.5268108631912942
-0.5897284638239234
-0.5840466497982566
-0.639744684756997
-0.7782628374186861
-0.734166532865828
-0.7989943866909149
-0.7296070636440002
-0.8088292724335278
-0.7854085920968146
-0.8718928245750933
-0.9091228091966014
-0.8856452549741761
-0.9662733277660952
-1.0985178485785512
-0.8870319168275876
-1.0707681290972435
-1.1491223060235203
-1.1207496072786411
-1.133002884838306
-1.275843526043343
-1.1601723360887006
-1.2535803019567993
-1.2263905370503851
-1.2521000672517295
-1.286467223858677
-1.322636853554923
-1.3454641663884244
-1.3022821713802764
-1.3972533031267798
-1.3184785429190706
-1.3655199874106971
-1.3870619025679334
-1.3848615286649189
-1.4231251796502766
-1.43683142915363
-1.3850373649155716
-1.3658463418939715
-1.441922304179167
-1.3682707144472805
-1.5105560869463588
-1.3718079281490243
-1.4716667137654065
-1.532644075282698
-1.3668798358341674
-1.504848143848009
-1.5007455495133286
-1.3604834426950814
-1.3846337793249903
-1.423225012073713
-1.4525537339177441
-1.4737709463600754
-1.3964553400120643
-1.4104172309482792
-1.513958366106463
-1.3411221959204445
-1.3182260563877513
-1.3060926879384303
-1.3071621892651755
-1.3456684473211458
-1.2065972529880211
-1.3057092974437103
-1.1508766052828892
-1.2863366576449282
-1.2429157831627335
-1.2326090552909446
-1.1867912221760841
-1.2210278372929764
-1.1020378462495046
-1.022488190266105
-1.0296568291330186
-1.0644127314294576
-0.970425088545932
-0.9290053690892792
-0.8941433185826497
-0.901919019421677
-0.869031156251469
-0.8393378053571364
-0.8546425883338825
-0.8355064344096033
-0.6276008816869725
-0.7153179148439419
-0.6762060694330388
-0.6791628044132397
-0.716101525793787
-0.5709823574113525
-0.5756223618068456
-0.42227166885995837
-0.4550999178338193
-0.45190154635896196
-0.39295604209154567
-0.4602969880192011
-0.3414161267124813
-0.341776993557008
-0.3158828333479204
-0.2302493849515031
-0.3076417666490525
-0.21783598991461217
-0.1267994841762023
-0.12469172819295016
-0.1398312406935035
-0.02196674893418893
0.062256874574950105
-0.04454340711979948
0.09848813000655203
0.12625506602581332
0.10381023451639747
0.09967943490207085
0.18839531095564066
0.1041265306582854
0.1461977947179805
0.25998181465932496
0.2173428519856892
0.19956920762872732
0.30356680746879466
0.33151660415839823
0.30825031601796626
0.32893857615342703
0.404116736383858
0.373282975267713
0.41411221175724117
0.508357968805593
0.5102918270646744
0.46589962347376895
0.5240412133895254
0.5363376380480626
0.6398217891289308
0.5757886926524193
0.635964647930942
0.6144172973828761
0.6216422606628416
0.6146101858559556
0.6716899784489964
0.5280436555995615
0.5877652698060603
0.6513267441548669
0.5539133831227601
0.6443029143291434
0.6348488906307088
0.660544954980252
0.5204034309993495
0.6464108165420447
0.5991872539237798
0.5863772073118996
0.6405546801207429
0.6176441148353372
0.6030534549871889
0.5677016315100682
0.6033488669793142
0.6702576303196419
0.5972887288478235
0.5432633428586991
0.5093231274673374
0.5614436685616084
0.577659026518939
0.5048733201641885
0.5990887200872961
0.5391781401552249
0.4739302288907441
0.4913141847609614
0.5055755945392651
0.4413425661463891
0.523672624189101
0.3690604868935687
0.36509729195276375
0.4453695400770968
0.3875516207182067
0.3722139027065528
0.33448679124106606
0.30714982629028775
0.31721076881794164
0.26151383776126325
0.2164558658528531
0.17212217339410593
0.22656645067815584
0.052431872114933664
0.17002320582639244
0.029221498315902476
0.07603507667638693
-0.02884271702087663
0.023064053651747872
-0.05309884923209117
-0.07663255044197281
-0.20329550275883043
-0.14959583211737032
-0.11250345111938015
-0.1043247016904743
-0.18004496229528041
-0.19236218637264912
-0.4047112149819787
-0.3419343336436072
-0.3182369245163506
-0.2871664759383523
-0.42286033906402715
-0.40531997289230526
-0.31017000719053955
-0.4772825157995605
-0.45033487746932677
-0.5188156979576222
-0.49890621390435574
-0.5278872055561757
-0.4889170131427658
-0.6374086531270543
-0.686946323886169
-0.6139588194382654
-0.5996307785354759
-0.6679263829886385
-0.6348753542349302
-0.7444877951364733
-0.7101547969735136
-0.7550988190896433
-0.7619482741046524
-0.791448607713914
-0.7390521206494888
-0.8009381949015797
-0.7296262366586729
-0.8226048437762776
-0.7799836364216199
-0.8242770704196042
-0.7601873340718744
-0.7871721925816679
-0.8504452090644026
-0.8523612508155698
-0.8350750244309252
-0.8489373310807221
-0.8422314594720324
-0.795153581838624
-0.8994746874951531
-0.7771223096358867
-0.9037819297116927
-0.7724828234567377
-0.7334007157951481
-0.8358905518459413
-0.8196550509449949
-0.782566248341314
-0.7817517742814118
-0.8536887496075007
-0.8244915434639588
-0.7117354601407425
-0.7971433054309165
-0.7617696150739253
-0.6797364129594268
-0.6944070961413011
-0.7460265698737076
-0.7208530404127984
-0.6531475554274281
-0.5336857973324606
-0.6754070600261382
-0.6085239440307002
-0.5365094533258445
-0.6361313550977103
-0.5593692090529572
-0.46213720024085037
-0.4615386469337508
-0.5172541656277073
-0.45867407207064625
-0.2619504025898738
-0.25029158366292437
-0.3759568277062302
-0.3274430818835164
-0.23132332339297995
-0.2335874876830381
-0.34548160619061385
-0.12276455717186496
-0.08865242965204291
-0.15343753942754818
-0.052344185152517174
-0.09247538823603946
0.05855254391525622
-0.039288989211177995
0.027544600441232893
0.08971132192524599
0.09081850882321872
0.11675790139799885
0.201782182516478
0.1675383109600116
0.3166810446270092
0.23277211632541003
0.28865144111182395
0.331905081620406
0.47173830078501394
0.37597673663264725
0.4855664181514213
0.41360386875297583
0.5148060773507432
0.5920786663618843
0.6418145437358842
0.741542067467944
0.6268873072149412
0.7494717457907827
0.7528202032473926
0.7953322888417678
0.8563987681353996
0.9687328033618336
0.8949574410429755
0.8952940838569292
0.9465855295030543
0.9511671406930359
0.9324618703611347
1.0039129555165505
1.052619495738767
1.1378005647963039
1.0989092388097061
1.2081857267001623
1.0703780256404838
1.1467771853296542
1.2530505475454252
1.2147766541693918
1.26212126235108
1.2899117318931368
1.3047249910130003
1.3307355393042535
1.34336511064497
1.4794486728410996
1.3992307309610545
1.328392928904259
1.320611809266569
1.4607026904909084
1.5226493129257233
1.335620041953939
1.534486092682829
1.4656491161158258
1.5381017713753615
1.4329714179055242
1.5022346519412717
1.5216217036809652
1.5550843088110209
1.3721004391828726
1.531819336184481
1.5757728034762715
1.4838858197108225
1.4197118464029388
1.4175481371243472
1.5732699825019616
1.4483846281240702
1.4480834938964027
1.5041396035119754
1.3672051605235829
1.4175023559415902
1.470037320219497
1.4800901639964972
1.4608974367947005
1.3571840489079552
1.3772649393603955
1.3784855992494456
1.374494057003191
1.450899283007999
1.274449738170409
1.3027944909735603
1.2336419785108406
1.0882082572648282
1.189962445999856
1.2112208870249865
1.1484434889074346
1.0418964499424166
1.147271691427169
1.071906946613828
1.0494690655323726
1.0730854576359654
1.0667410767169532
0.9093746342459197
0.9941008344094677
0.8896487310453228
0.9348998179840038
0.8089900236479273
0.7778726822061741
0.8394108766726579
0.7281901918653955
0.7164536169508823
0.7418108291191188
0.6555812687479831
0.6475797670249525
0.46839936411652094
0.5136030639860907
0.42202401434305636
0.42168396670733793
0.4084760050546716
0.4145174554268222
0.36631378593947295
0.2940893779743827
0.29932816520718764
0.16769147346491453
0.18442144781471775
0.150714972395947
0.10124960042410489
0.09509479653080774
0.03204840866684956
-0.023492976171119777
0.0048214995976248315
-0.035070024532192066
-0.08115696249591528
-0.017830610638733535
-0.138250720619797
-0.18622036641626097
-0.10321716734792066
-0.31738791926990023
-0.3264335684470327
-0.40473899104143846
-0.2935694615990028
-0.31751614224157265
-0.4069749315810966
-0.4250624300934298
-0.3996084518783575
-0.5019714817861625
-0.4717497112995023
-0.5412279610282663
-0.40651156667938415
-0.6083174308397372
-0.5198723322428535
-0.6136378914758889
-0.701557108803075
-0.6438300654153511
-0.6970715517135778
-0.6839722699493223
-0.6949820581548567
-0.7246545418476731
-0.6607730719046532
-0.8697884334211629
-0.712222979898026
-0.8419556449912569
-0.7010745822669633
-0.8302482926824457
-0.8689027919574792
-0.7896643975163259
-0.8064340431382743
-0.9017362828138381
-0.875422558462421
-0.876077606923408
-0.8430309208383878
-0.7624241833482104
-0.8578631171171696
-0.7604883078756619
-0.8276109572806299
-0.8554811449137205
-0.9026847089224775
-0.8229352450535952
-0.8088196403962358
-0.8588392568638719
-0.7714943897929626
-0.9121823677045579
-0.8006862710542151
-0.798011185855687
-0.7836989948944177
-0.7859890183694698
-0.6573451269475079
-0.7460274637165826
-0.6576203408898375
-0.7001151450824488
-0.6725338318431565
-0.6883058171867145
-0.6063616941682507
-0.5566058173019066
-0.6703323799493229
-0.6435466624827939
-0.6024747346905367
-0.5827433607298209
-0.4882686605472566
-0.46958315085685154
-0.3946091482874825
-0.41718639445161715
-0.44065463287760376
-0.43278359040006337
-0.3273683408644794
-0.4082669236111204
-0.39430793019484656
-0.2761714383059525
-0.2627906579116644
-0.2928055850917667
-0.2954646373383948
-0.16362087471848885
-0.14890380717409973
-0.03406767390206353
-0.10543540834089389
-0.14442425353917987
-0.18960100102315436
-0.07362081718582922
-0.06654064838124232
-0.011875651017500766
0.034234523294493
0.11323309440033266
0.06561981360176662
0.05926287141627004
0.15673120163257778
0.20922590977680924
0.06964479982385499
0.19753382752762672
0.29361786098857046
0.2697835797320351
0.2397261686878013
0.26883290027536044
0.39455976815193056
0.36285093022441767
0.33380348562524365
0.35673116662334403
0.28198188915888134
0.46648516604007495
0.5034082731555212
0.5297125412208817
0.4971291077393734
0.4525922856398523
0.4766927595959879
0.4360186452065466
0.5785533475474867
0.5494565236963657
0.5617478578087036
0.5700472043069896
0.670676688255713
0.5147676974948472
0.5995922043309398
0.6294665369459188
0.7234028123262753
0.6190887484983982
0.6345343424784462
0.6474726356771546
0.7009925264039786
0.5504079277573737
0.6152526579964978
0.5986891999647889
0.6436600623912011
0.6555999302008477
0.5608640759115691
0.6515393544497918
0.6248402243687969
0.532939480105596
0.6353892612979386
0.6529252791838778
0.6886916887114047
0.6632421015318807
0.5139074137838873
0.5215370748469651
0.5390390529807165
0.487253626871387
0.5158412056340218
0.4630591344522129
0.46342803863665877
0.47337697825609776
0.5348999809436301
0.38704539042259367
0.3226866614615293
0.3233829467716724
0.4929824046169885
0.3480656183061917
0.29499521033802567
0.3443624966587015
0.18144278852016316
0.23213508504974373
0.2081234045533357
0.18620857431504845
0.16575421396816747
0.1666787394235591
0.136541495669514
0.028110774458864063
-0.011366851988941475
0.08373849338496232
0.07606711037739677
-0.019901928518660288
-0.01774665686190914
-0.1463410501215858
-0.04284671325357947
-0.11195051897951666
-0.24003909201225399
-0.2889051457345015
-0.24291177871946912
-0.2588060584722262
-0.26351946412023575
-0.42880343855062586
-0.3365720345771293
-0.49757011425434766
-0.47468624044328367
-0.5777674770024108
-0.5508728201685857
-0.5728906799009041
-0.6038649120646207
-0.5995728028363836
-0.7071218229509657
-0.7959081567308227
-0.6877427829035399
-0.8566104533456685
-0.7610750288432135
-0.8604502003631734
-0.8493822157890714
-0.8909679321160558
-0.9134580262539955
-1.0488353509845372
-0.8738428446889372
-1.0254623673810865
-1.0282495719315945
-1.0143616113155427
-1.0595532099551672
-1.1340700156510197
-1.0558712812946287
-1.2133959598580057
-1.1877749180635657
-1.1636734152446557
-1.205992900561554
-1.24916128805664
-1.3044468654606154
-1.3569088318631275
-1.4044762529695154
-1.3386428979818843
-1.3342797856591415
-1.37230332261717
-1.395884895266806
-1.2805271287067863
-1.4259948877470772
-1.3910315435568825
-1.462088308387983
-1.3597292478893428
-1.3669927529173935
-1.4186444783870216
-1.4998903237594572
-1.3367423387697455
-1.46007809563506
-1.4420675467581865
-1.4098294899936874
-1.430961512931834
-1.5254012407154556
-1.466561183786843
-1.4325398263763487
-1.425148584427996
-1.5433734079439245
-1.3575201552370952
-1.3767887288161746
-1.4190487998842987
-1.3975977319314443
-1.3737084611270518
-1.3755791743011272
-1.3888244484350305
-1.2633265308443975
-1.3321405829361552
-1.2222961948558826
-1.3620882563346248
-1.3091137275528844
-1.2642211898115774
-1.259495505233182
-1.1797304447314307
-1.2268686464122545
-1.133013359466353
-1.098245178635749
-1.0544580623428663
-1.037651241028951
-1.0450544376304263
-0.9978454588811708
-1.0103253148134277
-1.055391593793554
-0.9452182175135385
-0.9143078945338365
-0.8408047357990893
-0.7725381009411095
-0.8215623301567481
-0.859282246426882
-0.7738873468008152
-0.6887311804479869
-0.7158491568914677
-0.6096053751783825
-0.5028151221518167
-0.6250629628807343
-0.4514132502373248
-0.550831390340651
-0.5396276588380496
-0.44231165020473767
-0.35923771773107427
-0.29136056618185074
-0.2709819220778888
-0.27499563172154196
-0.25591319459984085
-0.12609291963410552
-0.12446529332968079
-0.12552379351373874
-0.09648550776662337
0.011261778154013732
-0.05237475428239583
0.10639886228233571
0.0065601798618259155
0.08000263062546009
0.22570306183465316
0.17482412549884435
0.23051119467761286
0.24323196620486515
0.39455593475713696
0.3543968098061672
0.419191417022502
0.43084253942231493
0.4471351839446996
0.5068719576874856
0.5154066484509628
0.5602379511577613
0.576249955592446
0.5667172659315852
0.6626687368107257
0.6056771889398367
0.7417433259283893
0.7131985274742808
0.6912270717739033
0.7225555986564446
0.7677136089562873
0.7872923602305066
0.8453224695250862
0.8333508187939814
0.8892524705351128
0.9575129840259229
0.9427393954226314
0.9607600793784571
0.8683318775270004
0.9944601945014262
0.9264241865204104
0.8989006106596944
0.9959232992177933
1.1233210267048093
0.9774044547707061
1.102240556906292
1.0509312877786507
1.0640330227787198
1.1067609555223528
0.9750216152985697
1.0882116761679084
1.022893357090212
1.1124323973140278
1.0772138973147996
1.1135333526713782
1.0350393323071718
0.9689391513494389
1.1060336796601886
1.0926415534721587
1.0943057813195811
1.0286163704969138
1.1273411041068306
0.9829292046259207
1.0652428906342128
1.0486307037953575
0.9768529545165618
0.956551850741718
0.9880855580470872
1.0297288079104252
0.9599910796130992
0.9903567864706382
0.8971200703695554
0.8926851720160128
0.9491094787383381
0.8098982680020779
0.8919510838271945
0.83463548823338
0.8267646197194481
0.7644028132736618
0.7176357739314093
0.8067529765657602
0.6630237606080186
0.7453116272897125
0.7194288918152201
0.7003349445115248
0.6572203392960501
0.6076876661986365
0.5574669056604397
0.48196539982860015
0.48480863242598504
0.474372164083525
0.5175410391756079
0.4006097291494474
0.41637871979349855
0.361600386948898
0.27183731606199474
0.36834669423519906
0.3587354533466388
0.29989009385470833
0.2193906279749584
0.33892804089086565
0.15988304176796558
0.16970036241112985
0.14559869386358662
0.06287322502727277
0.10464813912913574
0.034560557149733884
-0.07314085445981268
0.03794572528481143
-0.02321506288506756
-0.004446102615869682
-0.05086517513349749
-0.10862485026724204
-0.15449637261031024
-0.08880948012350613
-0.21879315628267182
-0.23377090887288676
-0.25755326009893587
-0.3370965816342214
-0.18968067401025454
-0.27475517840038466
-0.2606906106306611
-0.26838705370582494
-0.39895795866378286
-0.3147920424736239
-0.3145546087135279
-0.3457253801327034
-0.43800948114769817
-0.3869420794610065
-0.4452782325192291
-0.47926381435537146
-0.40398250555857784
-0.41867870468326096
-0.4384091321449235
-0.5136348067299986
-0.5057750551883058
-0.5644892021454111
-0.541129490213553
-0.3935749538764744
-0.4783318375860025
-0.49758332387066007
-0.5084326781107352
-0.47289547739703686
-0.5654645190607906
-0.4897560658226592
-0.5538243395892467
-0.5222758379155404
-0.5192578168843024
-0.5921018176713875
-0.4752973454392939
-0.4777356210638099
